5600,,-0.020733196002136377
5601,,-0.013485160601205415
5602,,0.008793011367971282
5603,,0.0023079270618753256
5604,,0.00581750209811549
5605,,0.018482490272373475
5606,,0.020542458228427485
5607,,0.019703212024109185
5608,,0.03938735027084787
5609,,0.05251010910200674
5610,,0.06158922713054108
5611,,0.06136034180209064
5612,,0.054264896620126825
5613,,0.05075532158388666
5614,,0.04228656443122018
5615,,0.05411230640115986
5616,,0.05243381399252327
5617,,0.05128938735027103
5618,,0.04159990844586884
5619,,0.03313115129320199
5620,,0.020847638666361412
5621,,0.017338063630121248
5622,,0.02321278706034935
5623,,0.028934920271610487
5624,,0.021457999542229267
5625,,0.005970092317082454
5626,,0.008487830930037354
5627,,0.006733043411917272
5628,,0.00909819180590521
5629,,0.006198977645532899
5630,,0.00207904173342488
5631,,0.00017166399633783413
5632,,0.0013160906385900617
5633,,-0.0005149919890135024
5634,,-0.006847486076142495
5635,,0.003986419470511926
5636,,0.0095559624628061
5637,,0.01619363698786902
5638,,0.0008583199816891707
5639,,-0.005474174105439822
5640,,-0.012188143739986224
5641,,0.0013923857480735435
5642,,0.007724879835202537
5643,,0.016422522316319466
5644,,0.016880292973220357
5645,,-0.0047112230106050035
5646,,-0.006389715419241604
5647,,-0.007381551842526868
5648,,0.00833524071107039
5649,,0.011310749980926182
5650,,0.005893797207598972
5651,,0.008869306477454764
5652,,0.0015449759670405072
5653,,-0.0008964675364309116
5654,,-0.0014305333028152845
5655,,0.008487830930037354
5656,,0.007190814068818163
5657,,0.003147173266193626
5658,,0.0019264515144579164
5659,,-0.0027275501640344757
5660,,-0.0028801403830014394
5661,,-0.00020981155107957505
5662,,0.0061226825360494175
5663,,0.0095559624628061
5664,,0.013218127718013228
5665,,0.006961928740367718
5666,,9.53688868543523e-05
5667,,-0.006313420309758122
5668,,-0.0027275501640344757
5669,,0.0036812390325779987
5670,,0.013218127718013228
5671,,0.014438849469748938
5672,,-0.0018120088502326936
5673,,-0.006771190966659013
5674,,-0.0008964675364309116
5675,,0.01161593041886011
5676,,0.0095559624628061
5677,,0.012607766842145374
5678,,0.006275272755016381
5679,,-0.00020981155107957505
5680,,-5.722133211261138e-05
5681,,-0.006313420309758122
5682,,0.006885633630884236
5683,,0.014438849469748938
5684,,0.009479667353322618
5685,,-0.0014305333028152845
5686,,0.00207904173342488
5687,,-0.0006675822079804661
5688,,0.006198977645532899
5689,,0.006275272755016381
5690,,0.006198977645532899
5691,,0.006885633630884236
5692,,0.0018501564049744346
5693,,-0.002193484397650103
5694,,-0.0008964675364309116
5695,,0.008564126039520836
5696,,0.0070382238498511995
5697,,0.012607766842145374
5698,,0.005588616769665045
5699,,9.53688868543523e-05
5700,,0.0028038452735179575
5701,,0.0019645990691996573
5702,,0.007991912718394723
5703,,0.01409552147707327
5704,,0.016384374761577725
5705,,0.006160830090791158
5706,,0.0037956816968032214
5707,,-0.006351567864499863
5708,,0.005092698558022413
5709,,0.011806668192568814
5710,,0.01661326009002817
5711,,0.016384374761577725
5712,,-0.0042153047989623715
5713,,-0.0061226825360494175
5714,,-0.003528648813611035
5715,,0.01371404592965586
5716,,0.008144502937361686
5717,,0.0017357137407492118
5718,,0.011425192645151405
5719,,0.003109025711451885
5720,,0.0019645990691996573
5721,,0.0027275501640344757
5722,,0.006160830090791158
5723,,0.006694895857175531
5724,,0.016079194323643797
5725,,0.011806668192568814
5726,,0.00455863279163804
5727,,-0.004825665674830226
5728,,0.004406042572671076
5729,,0.01661326009002817
5730,,0.01661326009002817
5731,,0.019436179140916998
5732,,0.010051880674448732
5733,,0.004787518120088485
5734,,0.0007438773174639479
5735,,0.01035706111238266
5736,,0.019665064469367444
5737,,0.02622644388494688
5738,,0.013179980163271487
5739,,0.0007438773174639479
5740,,-0.001621271076523989
5741,,-0.0005531395437552433
5742,,0.014171816586556751
5743,,0.023937590600442427
5744,,0.020656900892652708
5745,,0.0002861066605630569
5746,,-0.0015449759670405072
5747,,0.0002861066605630569
5748,,0.011730373083085333
5749,,0.009899290455481768
5750,,0.010738536659800069
5751,,0.007763027389944278
5752,,0.00043869687953002057
5753,,-0.0019264515144579164
5754,,-0.000705729762722207
5755,,0.008449683375295614
5756,,0.012951094834821042
5757,,0.0202754253452353
5758,,0.003948271915770185
5759,,-0.0014686808575570254
5760,,-0.0013923857480735435
5761,,0.004406042572671076
5762,,0.011348897535667923
5763,,0.01615548943312728
5764,,0.003566796368352776
5765,,0.0019645990691996573
5766,,0.0015831235217822481
5767,,-0.003528648813611035
5768,,0.005092698558022413
5769,,0.01577401388570987
5770,,0.019588769359883962
5771,,0.006160830090791158
5772,,0.0014305333028152845
5773,,0.0022697795071335847
5774,,-0.0032997634851605895
5775,,0.004482337682154558
5776,,0.00623712520027464
5777,,0.011959258411535778
5778,,0.005855649652857231
5779,,5.722133211261138e-05
5780,,-0.0005531395437552433
5781,,-0.005893797207598972
5782,,0.0006675822079804661
5783,,0.01874952315556566
5784,,0.018596932936598698
5785,,0.004177157244220631
5786,,0.0027275501640344757
5787,,-0.005970092317082454
5788,,-0.009021896696421727
5789,,0.005550469214923304
5790,,0.012645914396887115
5791,,0.017605096513313434
5792,,0.0031853208209353667
5793,,-0.010166323338673955
5794,,-0.0019264515144579164
5795,,0.017986572060730843
5796,,0.010433356221866141
5797,,0.009822995345998287
5798,,0.008831158922713023
5799,,0.011959258411535778
5800,,-0.006008239871824195
5801,,-0.012645914396887115
5802,,0.005130846112764154
5803,,0.013828488593881083
5804,,0.003986419470511926
5805,,0.0003242542153047978
5806,,0.0013160906385900617
5807,,0.0019264515144579164
5808,,0.010852979324025291
5809,,0.0005531395437552433
5810,,-0.00043869687953002057
5811,,-0.002193484397650103
5812,,-0.007763027389944278
5813,,-0.007686732280460796
5814,,-0.011043717097733996
5815,,0.005741206988632008
5816,,0.009174486915388691
5817,,0.011539635309376628
5818,,-0.0031853208209353667
5819,,-0.008602273594262577
5820,,-0.007839322499427759
5821,,-0.0075341420614938315
5822,,-0.004940108339055449
5823,,0.007724879835202537
5824,,0.01413366903181501
5825,,0.005283436331731117
5826,,-0.0009727626459143934
5827,,-0.005855649652857231
5828,,0.005207141222247635
5829,,0.012073701075761
5830,,0.010318913557640919
5831,,0.009021896696421727
5832,,0.007648584725719055
5833,,0.006885633630884236
5834,,1.907377737087046e-05
5835,,0.013065537499046265
5836,,0.017261768520637766
5837,,0.020084687571526594
5838,,0.0095559624628061
5839,,0.00833524071107039
5840,,0.008793011367971282
5841,,0.009021896696421727
5842,,0.016880292973220357
5843,,0.01947432669565874
5844,,0.018406195162889993
5845,,0.013141832608529747
5846,,0.0020027466239413982
5847,,0.004062714579995408
5848,,0.010929274433508773
5849,,0.019245441367208294
5850,,0.02237354085603105
5851,,0.01497291523613331
5852,,0.008640421149004318
5853,,0.002994583047226662
5854,,0.0023079270618753256
5855,,0.013218127718013228
5856,,0.016498817425802947
5857,,0.02077134355687793
5858,,0.013828488593881083
5859,,0.0074959945067520906
5860,,0.003528648813611035
5861,,0.003910124361028444
5862,,0.010471503776607882
5863,,0.011768520637827073
5864,,0.019398031586175257
5865,,0.008640421149004318
5866,,0.005893797207598972
5867,,0.005970092317082454
5868,,0.012531471732661892
5869,,0.012378881513694928
5870,,0.011768520637827073
5871,,0.013523308155947156
5872,,0.006275272755016381
5873,,0.0003242542153047978
5874,,-0.001201647974364839
5875,,0.008564126039520836
5876,,0.009632257572289582
5877,,0.014591439688715901
5878,,0.01367589837491412
5879,,0.006809338521400754
5880,,0.007953765163652982
5881,,0.011387045090409664
5882,,0.005359731441214599
5883,,0.0033760585946440713
5884,,0.008182650492103427
5885,,-0.002574959945067512
5886,,0.008030060273136463
5887,,0.009861142900740028
5888,,0.011539635309376628
5889,,0.01367589837491412
5890,,0.018177309834439548
5891,,0.010242618448157437
5892,,-0.0033379110399023304
5893,,-0.0037956816968032214
5894,,0.004749370565346744
5895,,0.021381704432745785
5896,,0.014896620126649829
5897,,0.012989242389562783
5898,,0.0010109102006561344
5899,,0.0026894026092927348
5900,,0.00207904173342488
5901,,0.003070878156710144
5902,,0.008869306477454764
5903,,0.018787670710307403
5904,,0.022678721293964976
5905,,0.005359731441214599
5906,,-0.0018120088502326936
5907,,-0.010051880674448732
5908,,0.0013160906385900617
5909,,0.013370717936980192
5910,,0.015506981002517684
5911,,0.01573586633096813
5912,,0.006275272755016381
5913,,-0.002574959945067512
5914,,-0.004177157244220631
5915,,0.006885633630884236
5916,,0.016346227206835984
5917,,0.013447013046463674
5918,,0.005359731441214599
5919,,0.0003242542153047978
5920,,-0.0008964675364309116
5921,,-0.0013542381933318026
5922,,0.011844815747310555
5923,,0.021000228885328376
5924,,0.01703288319218732
5925,,-0.0018120088502326936
5926,,-0.002117189288166621
5927,,0.0013160906385900617
5928,,0.011997405966277519
5929,,0.01329442282749671
5930,,0.017719539177538657
5931,,0.0112344548714427
5932,,-0.00043869687953002057
5933,,-0.005703059433890267
5934,,0.0023842221713588074
5935,,0.01832990005340651
5936,,0.016117341878385538
5937,,0.01657511253528643
5938,,0.009861142900740028
5939,,0.004291599908445853
5940,,-0.0008201724269474298
5941,,-0.00013351644159609322
5942,,0.006885633630884236
5943,,0.008564126039520836
5944,,0.012531471732661892
5945,,0.011081864652475737
5946,,0.0087167162584878
5947,,-0.00829709315632865
5948,,0.0061226825360494175
5949,,0.014667734798199383
5950,,0.01779583428702214
5951,,0.003910124361028444
5952,,0.0003242542153047978
5953,,-0.007839322499427759
5954,,-0.002956435492484921
5955,,0.012149996185244483
5956,,0.013904783703364565
5957,,0.01832990005340651
5958,,0.007419699397268609
5959,,-0.002040894178683139
5960,,-0.009441519798580877
5961,,0.00024795910582131597
5962,,0.021305409323262303
5963,,0.010471503776607882
5964,,0.009250782024872173
5965,,-0.00013351644159609322
5966,,-0.0047112230106050035
5967,,-0.0024223697261005483
5968,,0.006885633630884236
5969,,0.012760357061112337
5970,,0.014438849469748938
5971,,0.015201800564583756
5972,,0.004749370565346744
5973,,0.0008583199816891707
5974,,0.0016975661860074709
5975,,0.0065804531929503085
5976,,0.0013923857480735435
5977,,0.020237277790493557
5978,,0.014744029907682865
5979,,0.0078774700541695
5980,,0.005130846112764154
5981,,0.00497825589379719
5982,,0.010166323338673955
5983,,0.01657511253528643
5984,,0.015888456549935093
5985,,0.006427862973983345
5986,,0.004367895017929335
5987,,0.006961928740367718
5988,,0.01535439078355072
5989,,0.0020027466239413982
5990,,0.007343404287785127
5991,,0.009250782024872173
5992,,0.004901960784313708
5993,,0.00017166399633783413
5994,,0.0005531395437552433
5995,,0.009174486915388691
5996,,0.014362554360265456
5997,,0.017338063630121248
5998,,0.0032234683756771076
5999,,-0.013790341039139342
6000,,-0.006542305638208568
6001,,-0.0038719768062867033
6002,,0.010700389105058328
6003,,0.01573586633096813
6004,,0.011997405966277519
6005,,0.0013923857480735435
6006,,-0.0017357137407492118
6007,,0.0013160906385900617
6008,,0.013141832608529747
6009,,0.006198977645532899
6010,,0.006427862973983345
6011,,0.01077668421454181
6012,,0.002994583047226662
6013,,0.004520485236896299
6014,,0.002613107499809253
6015,,0.006351567864499863
6016,,0.01863508049134044
6017,,0.018940260929274366
6018,,0.009632257572289582
6019,,0.005970092317082454
6020,,0.0038338292515449623
6021,,-0.0012779430838483208
6022,,0.01283665217059582
6023,,0.017566948958571693
6024,,0.01703288319218732
6025,,0.002155336842908362
6026,,0.003070878156710144
6027,,-0.0033379110399023304
6028,,0.007267109178301645
6029,,0.023365377279316313
6030,,0.027180132753490405
6031,,0.00497825589379719
6032,,-0.00013351644159609322
6033,,-0.007000076295109459
6034,,-0.0014305333028152845
6035,,0.014438849469748938
6036,,0.01695658808270384
6037,,0.013447013046463674
6038,,0.008640421149004318
6039,,0.004596780346379781
6040,,0.005741206988632008
6041,,0.0014686808575570254
6042,,0.006809338521400754
6043,,0.018558785381856957
6044,,0.009174486915388691
6045,,0.0037575341420614805
6046,,0.0017738612954909527
6047,,0.0009346150911726525
6048,,0.007419699397268609
6049,,0.0061226825360494175
6050,,0.006198977645532899
6051,,0.01916914625772481
6052,,0.008411535820553873
6053,,-0.002574959945067512
6054,,0.00024795910582131597
6055,,0.0074959945067520906
6056,,-0.00013351644159609322
6057,,0.005359731441214599
6058,,0.0018501564049744346
6059,,0.001163500419623098
6060,,0.006427862973983345
6061,,0.002613107499809253
6062,,0.0023842221713588074
6063,,0.007648584725719055
6064,,0.004520485236896299
6065,,-0.0002861066605630569
6066,,-0.0047112230106050035
6067,,-0.004100862134737149
6068,,0.014744029907682865
6069,,0.008487830930037354
6070,,0.003070878156710144
6071,,0.005130846112764154
6072,,-0.00036240177004653873
6073,,0.003147173266193626
6074,,0.0018501564049744346
6075,,0.010929274433508773
6076,,0.011463340199893146
6077,,0.01573586633096813
6078,,0.007953765163652982
6079,,0.0033760585946440713
6080,,0.0028419928282596985
6081,,0.0078774700541695
6082,,0.01535439078355072
6083,,0.01367589837491412
6084,,0.012989242389562783
6085,,0.003147173266193626
6086,,0.005588616769665045
6087,,0.004520485236896299
6088,,0.008564126039520836
6089,,0.015659571221484647
6090,,0.01916914625772481
6091,,0.011158159761959219
6092,,0.004520485236896299
6093,,-0.008602273594262577
6094,,-0.0034142061493858122
6095,,0.013218127718013228
6096,,0.01749065384908821
6097,,0.009327077134355655
6098,,0.011539635309376628
6099,,0.008030060273136463
6100,,-0.010929274433508773
6101,,-0.002155336842908362
6102,,0.010051880674448732
6103,,0.011806668192568814
6104,,0.008678568703746059
6105,,-0.002155336842908362
6106,,-0.0027656977187762166
6107,,-0.0003242542153047978
6108,,0.013637750820172378
6109,,0.011577782864118369
6110,,0.008525978484779095
6111,,0.01203555352101926
6112,,0.0009727626459143934
6113,,-0.0024605172808422893
6114,,-0.0013160906385900617
6115,,0.008525978484779095
6116,,0.007991912718394723
6117,,0.016689555199511652
6118,,0.010585946440833105
6119,,0.0027275501640344757
6120,,0.00249866483558403
6121,,0.002040894178683139
6122,,0.009288929579613914
6123,,0.01371404592965586
6124,,0.012188143739986224
6125,,0.00165941863126573
6126,,-9.53688868543523e-05
6127,,-0.0017738612954909527
6128,,0.005092698558022413
6129,,0.012417029068436669
6130,,0.014629587243457642
6131,,0.00997558556496525
6132,,0.004100862134737149
6133,,-0.001163500419623098
6134,,-0.0014686808575570254
6135,,0.009670405127031323
6136,,0.010662241550316587
6137,,0.01737621118486299
6138,,0.003109025711451885
6139,,0.002574959945067512
6140,,-0.0027656977187762166
6141,,0.001201647974364839
6142,,0.011348897535667923
6143,,0.017605096513313434
6144,,0.01081483176928355
6145,,0.002574959945067512
6146,,0.0009727626459143934
6147,,0.00455863279163804
6148,,0.01081483176928355
6149,,0.007763027389944278
6150,,0.008983749141679986
6151,,-0.000705729762722207
6152,,0.0023460746166170665
6153,,0.004406042572671076
6154,,0.0013542381933318026
6155,,0.010891126878767032
6156,,0.009441519798580877
6157,,0.00455863279163804
6158,,-0.004825665674830226
6159,,-0.009174486915388691
6160,,-0.0006294346532387252
6161,,0.012951094834821042
6162,,0.012569619287403633
6163,,0.004482337682154558
6164,,0.0013542381933318026
6165,,-0.008564126039520836
6166,,-0.0026894026092927348
6167,,0.003032730601968403
6168,,0.0219539177538719
6169,,0.022640573739223235
6170,,0.016689555199511652
6171,,0.014248111696040233
6172,,0.012340733958953187
6173,,0.01783398184176388
6174,,0.020428015564202262
6175,,0.0328641184100098
6176,,0.038433661402303976
6177,,0.045986877241169045
6178,,0.03965438315404005
6179,,0.03149080643930713
6180,,0.02943083848325312
6181,,0.045300221255817716
6182,,0.044766155489433336
6183,,0.04797055008773958
6184,,0.05231937132829804
6185,,0.04308766308079674
6186,,0.034618905928129884
6187,,0.024395361257343318
6188,,0.01829175249866477
6189,,0.03408484016174551
6190,,0.035076676585030775
6191,,0.02912565804531919
6192,,0.014476997024490679
6193,,0.006466010528725086
6194,,-0.005588616769665045
6195,,-0.012531471732661892
6196,,-0.035954070344091
6197,,-0.05708781567101547
6198,,-0.0712024109254598
6199,,-0.06029221026932189
6200,,-0.05067902647440299
6201,,-0.051747158007171744
6202,,-0.045567254139009715
6203,,-0.06258106355382635
6204,,-0.08501182574197
6205,,-0.08005264362554369
6206,,-0.08577477683680483
6207,,-0.0854695963988709
6208,,-0.09210727092393382
6209,,-0.09058136873426419
6210,,-0.06670099946593437
6211,,-0.05663004501411458
6212,,-0.04053177691309991
6213,,-0.03503852903028922
6214,,-0.015278095674067238
6215,,5.722133211261138e-05
6216,,0.0036430914778362578
6217,,0.009822995345998287
6218,,0.01119630731670096
6219,,0.013179980163271487
6220,,0.020428015564202262
6221,,0.037518120088502194
6222,,0.0591859311818114
6223,,0.07040131227588323
6224,,0.0663576714732587
6225,,0.05956740672922881
6226,,0.05613412680247213
6227,,0.0700961318379493
6228,,0.0642977035172047
6229,,0.05521858548867035
6230,,0.05727855344472436
6231,,0.058499275196460074
6232,,0.050488288700694474
6233,,0.03690775921263434
6234,,0.027141985198748664
6235,,0.03164339665827409
6236,,0.03271152819104284
6237,,0.03278782330052632
6238,,0.021877622644388417
6239,,0.01165407797360185
6240,,0.007610437170977313
6241,,0.006618600747692049
6242,,0.009060044251163468
6243,,0.013179980163271487
6244,,0.0075341420614938315
6245,,0.009899290455481768
6246,,0.0042534523537041125
6247,,-0.0056649118791485265
6248,,0.005550469214923304
6249,,0.011577782864118369
6250,,0.006771190966659013
6251,,0.005931944762340713
6252,,0.008602273594262577
6253,,0.0005912870984969842
6254,,-0.00040054932478827965
6255,,0.008602273594262577
6256,,0.011120012207217478
6257,,0.011120012207217478
6258,,0.008754863813229541
6259,,0.00745784695201035
6260,,0.009212634470130432
6261,,0.014705882352941124
6262,,0.014476997024490679
6263,,0.011348897535667923
6264,,0.010509651331349623
6265,,0.00036240177004653873
6266,,0.008220798046845168
6267,,0.007381551842526868
6268,,0.012493324177920151
6269,,0.016765850308995134
6270,,0.012493324177920151
6271,,0.011272602426184442
6272,,0.004177157244220631
6273,,0.010128175783932214
6274,,0.007839322499427759
6275,,0.015697718776226388
6276,,0.01577401388570987
6277,,0.010433356221866141
6278,,0.004406042572671076
6279,,0.0034142061493858122
6280,,0.0023460746166170665
6281,,0.0033379110399023304
6282,,0.013332570382238451
6283,,0.022182803082322344
6284,,0.017223620965896025
6285,,0.004024567025253667
6286,,0.008525978484779095
6287,,0.006008239871824195
6288,,0.010662241550316587
6289,,0.015087357900358533
6290,,0.011043717097733996
6291,,0.0027275501640344757
6292,,-0.005359731441214599
6293,,0.0024223697261005483
6294,,0.010128175783932214
6295,,0.017681391622796916
6296,,0.023327229724574572
6297,,0.013103685053788006
6298,,0.0014305333028152845
6299,,0.003566796368352776
6300,,0.001621271076523989
6301,,0.0008583199816891707
6302,,0.0036812390325779987
6303,,0.008869306477454764
6304,,0.005970092317082454
6305,,0.0014686808575570254
6306,,0.003604943923094517
6307,,0.00497825589379719
6308,,0.008411535820553873
6309,,0.020466163118944003
6310,,0.015278095674067238
6311,,0.0070382238498511995
6312,,-0.007000076295109459
6313,,-0.013942931258106306
6314,,-0.002040894178683139
6315,,0.013599603265430638
6316,,0.017566948958571693
6317,,0.020923933775844894
6318,,0.011310749980926182
6319,,0.01245517662317841
6320,,-0.0028801403830014394
6321,,-0.0042534523537041125
6322,,0.006198977645532899
6323,,0.012989242389562783
6324,,0.012989242389562783
6325,,0.00413900968947889
6326,,0.008106355382619945
6327,,0.007801174944686019
6328,,0.009632257572289582
6329,,0.01657511253528643
6330,,0.010090028229190473
6331,,0.006809338521400754
6332,,0.005207141222247635
6333,,0.0012397955291065799
6334,,-0.0006675822079804661
6335,,0.012073701075761
6336,,0.011921110856794037
6337,,0.014744029907682865
6338,,0.0056649118791485265
6339,,0.004749370565346744
6340,,0.005359731441214599
6341,,0.004062714579995408
6342,,0.011005569542992255
6343,,0.011844815747310555
6344,,0.0095559624628061
6345,,0.0046730754558632626
6346,,-0.004482337682154558
6347,,0.006198977645532899
6348,,0.018863965819790884
6349,,0.019398031586175257
6350,,0.01825360494392303
6351,,0.010318913557640919
6352,,-0.0010490577553978753
6353,,-0.003948271915770185
6354,,0.008487830930037354
6355,,0.015201800564583756
6356,,0.01665140764476991
6357,,0.022526131074998013
6358,,0.013370717936980192
6359,,0.0018501564049744346
6360,,0.0004768444342717615
6361,,0.003604943923094517
6362,,0.006351567864499863
6363,,0.016422522316319466
6364,,0.015888456549935093
6365,,0.005359731441214599
6366,,-0.006923781185625977
6367,,-0.007763027389944278
6368,,0.006885633630884236
6369,,0.010929274433508773
6370,,0.00993743801022351
6371,,0.008487830930037354
6372,,0.0013923857480735435
6373,,-0.00455863279163804
6374,,-0.0027275501640344757
6375,,0.006198977645532899
6376,,0.005359731441214599
6377,,0.008106355382619945
6378,,0.005588616769665045
6379,,0.0023079270618753256
6380,,0.002536812390325771
6381,,0.0103952086671244
6382,,0.009632257572289582
6383,,0.008106355382619945
6384,,0.009021896696421727
6385,,-0.0013542381933318026
6386,,0.0022316319523918438
6387,,0.005130846112764154
6388,,0.011081864652475737
6389,,0.011768520637827073
6390,,0.01619363698786902
6391,,0.012531471732661892
6392,,0.0013923857480735435
6393,,-0.00829709315632865
6394,,-0.0002861066605630569
6395,,0.011539635309376628
6396,,0.013065537499046265
6397,,0.005741206988632008
6398,,0.0007820248722056888
6399,,0.0028419928282596985
6400,,0.0056267643244067855
6401,,0.0036430914778362578
6402,,0.003566796368352776
6403,,0.010509651331349623
6404,,0.006618600747692049
6405,,0.0006675822079804661
6406,,0.00165941863126573
6407,,-0.00040054932478827965
6408,,0.006542305638208568
6409,,-0.0015449759670405072
6410,,0.005245288776989376
6411,,0.013332570382238451
6412,,0.010433356221866141
6413,,-0.0046730754558632626
6414,,-0.007953765163652982
6415,,0.00745784695201035
6416,,0.009288929579613914
6417,,0.012111848630502742
6418,,-0.0012397955291065799
6419,,0.0009727626459143934
6420,,-0.006198977645532899
6421,,-0.002155336842908362
6422,,0.006008239871824195
6423,,0.011272602426184442
6424,,0.00455863279163804
6425,,-0.007419699397268609
6426,,-0.005436026550698081
6427,,-0.0026894026092927348
6428,,-0.003604943923094517
6429,,0.009441519798580877
6430,,0.013103685053788006
6431,,0.005703059433890267
6432,,-0.00833524071107039
6433,,-0.01497291523613331
6434,,-0.0015449759670405072
6435,,0.008220798046845168
6436,,0.008373388265812132
6437,,0.00249866483558403
6438,,0.0012779430838483208
6439,,-0.0019264515144579164
6440,,-0.0029182879377431803
6441,,-0.0010109102006561344
6442,,0.01493476768139157
6443,,0.025005722133211172
6444,,-0.0005531395437552433
6445,,-0.010013733119706991
6446,,-0.008564126039520836
6447,,0.0037956816968032214
6448,,0.011577782864118369
6449,,0.018825818265049143
6450,,0.018902113374532625
6451,,0.00997558556496525
6452,,0.004863813229571967
6453,,-0.0017738612954909527
6454,,0.00036240177004653873
6455,,0.008144502937361686
6456,,0.01455329213397416
6457,,0.01989394979781789
6458,,0.013027389944304524
6459,,0.010662241550316587
6460,,0.00745784695201035
6461,,0.009899290455481768
6462,,0.01493476768139157
6463,,0.021496147096971008
6464,,0.014400701915007197
6465,,0.008525978484779095
6466,,0.013179980163271487
6467,,0.011043717097733996
6468,,0.014400701915007197
6469,,0.021267261768520562
6470,,0.02286945906767368
6471,,0.017528801403829952
6472,,0.004024567025253667
6473,,0.00745784695201035
6474,,0.014400701915007197
6475,,0.016842145418478616
6476,,0.021267261768520562
6477,,0.018139162279697807
6478,,0.013103685053788006
6479,,0.0056267643244067855
6480,,-0.0014686808575570254
6481,,0.004100862134737149
6482,,0.014171816586556751
6483,,0.014629587243457642
6484,,0.008068207827878204
6485,,0.0060845349813076766
6486,,0.005779354543373749
6487,,0.005931944762340713
6488,,0.011501487754634887
6489,,0.004863813229571967
6490,,0.009822995345998287
6491,,0.0031853208209353667
6492,,-0.0020027466239413982
6493,,-0.0010109102006561344
6494,,0.00829709315632865
6495,,0.018062867170214325
6496,,0.017605096513313434
6497,,0.014248111696040233
6498,,0.011120012207217478
6499,,0.00623712520027464
6500,,0.0022697795071335847
6501,,0.0070763714045929405
6502,,0.007381551842526868
6503,,0.015850308995193352
6504,,0.013790341039139342
6505,,0.008220798046845168
6506,,0.003948271915770185
6507,,0.007305256733043386
6508,,0.01874952315556566
6509,,0.01821545738918129
6510,,0.007610437170977313
6511,,0.006847486076142495
6512,,-0.0016975661860074709
6513,,-0.002994583047226662
6514,,0.0056267643244067855
6515,,0.01081483176928355
6516,,0.012722209506370596
6517,,0.012264438849469705
6518,,0.006694895857175531
6519,,0.010204470893415696
6520,,0.00791561760891124
6521,,0.004406042572671076
6522,,0.0042534523537041125
6523,,0.0060845349813076766
6524,,0.0013542381933318026
6525,,-0.001621271076523989
6526,,0.006771190966659013
6527,,0.014324406805523715
6528,,0.02325093461509109
6529,,0.021343556878004044
6530,,0.01821545738918129
6531,,0.006618600747692049
6532,,-0.010929274433508773
6533,,-0.010929274433508773
6534,,-0.0013160906385900617
6535,,0.007763027389944278
6536,,0.01951247425040048
6537,,0.017681391622796916
6538,,0.007686732280460796
6539,,0.004024567025253667
6540,,0.01493476768139157
6541,,0.008449683375295614
6542,,-0.004291599908445853
6543,,-0.006198977645532899
6544,,-0.0020027466239413982
6545,,-0.004596780346379781
6546,,-0.005054551003280672
6547,,-0.006046387426565936
6548,,0.0227931639581902
6549,,0.022564278629739754
6550,,0.008373388265812132
6551,,0.0028801403830014394
6552,,-0.007648584725719055
6553,,-0.008030060273136463
6554,,-0.0010872053101396162
6555,,0.012340733958953187
6556,,0.020580605783169226
6557,,0.01287479972533756
6558,,0.004787518120088485
6559,,0.0036430914778362578
6560,,0.007610437170977313
6561,,0.012722209506370596
6562,,0.017147325856412543
6563,,0.021496147096971008
6564,,0.01409552147707327
6565,,0.006389715419241604
6566,,0.0028801403830014394
6567,,0.004406042572671076
6568,,0.010891126878767032
6569,,0.015392538338292459
6570,,0.01707103074692906
6571,,0.01661326009002817
6572,,0.005016403448538931
6573,,0.0023460746166170665
6574,,0.0032616159304188486
6575,,0.00829709315632865
6576,,0.012951094834821042
6577,,-0.0018501564049744346
6578,,-0.001163500419623098
6579,,0.00020981155107957505
6580,,0.0031853208209353667
6581,,0.009441519798580877
6582,,0.0075341420614938315
6583,,0.013485160601205415
6584,,0.0024223697261005483
6585,,-0.003452353704127553
6586,,-0.004749370565346744
6587,,0.0019645990691996573
6588,,0.009288929579613914
6589,,0.008068207827878204
6590,,0.010967421988250514
6591,,0.011806668192568814
6592,,0.0018883039597161755
6593,,-0.009021896696421727
6594,,0.0018120088502326936
6595,,0.013485160601205415
6596,,0.014324406805523715
6597,,0.012798504615854078
6598,,0.009670405127031323
6599,,0.0028038452735179575
6600,,0.00207904173342488
6601,,0.008258945601586909
6602,,0.012989242389562783
6603,,0.013828488593881083
6604,,0.011310749980926182
6605,,0.006198977645532899
6606,,-0.00013351644159609322
6607,,0.002536812390325771
6608,,0.012684061951628856
6609,,0.020618753337910967
6610,,0.01909285114824133
6611,,0.009174486915388691
6612,,0.002536812390325771
6613,,-0.002651255054550994
6614,,0.007190814068818163
6615,,0.014820325017166347
6616,,0.013828488593881083
6617,,0.010852979324025291
6618,,0.003986419470511926
6619,,-0.0012779430838483208
6620,,-0.005550469214923304
6621,,0.005283436331731117
6622,,0.005588616769665045
6623,,0.009861142900740028
6624,,0.006885633630884236
6625,,0.006427862973983345
6626,,-0.0002861066605630569
6627,,0.004825665674830226
6628,,0.0023842221713588074
6629,,0.010318913557640919
6630,,0.0023079270618753256
6631,,0.0003242542153047978
6632,,0.0023842221713588074
6633,,0.003147173266193626
6634,,0.004596780346379781
6635,,0.008640421149004318
6636,,0.017261768520637766
6637,,0.013904783703364565
6638,,0.011081864652475737
6639,,0.007267109178301645
6640,,0.0070382238498511995
6641,,0.003528648813611035
6642,,0.01161593041886011
6643,,0.013370717936980192
6644,,0.010318913557640919
6645,,0.008869306477454764
6646,,0.004749370565346744
6647,,0.004901960784313708
6648,,0.01665140764476991
6649,,0.01741435873960473
6650,,0.018558785381856957
6651,,0.014896620126649829
6652,,-0.0024223697261005483
6653,,-0.005855649652857231
6654,,0.004291599908445853
6655,,0.017719539177538657
6656,,0.02161058976119623
6657,,0.017338063630121248
6658,,0.008487830930037354
6659,,0.00909819180590521
6660,,0.0015449759670405072
6661,,0.009327077134355655
6662,,0.012149996185244483
6663,,0.01283665217059582
6664,,0.0046730754558632626
6665,,0.007724879835202537
6666,,0.0024605172808422893
6667,,0.00581750209811549
6668,,0.009708552681773064
6669,,0.014438849469748938
6670,,0.012149996185244483
6671,,0.0010872053101396162
6672,,-0.00249866483558403
6673,,-0.006542305638208568
6674,,-0.0009727626459143934
6675,,0.011005569542992255
6676,,0.010090028229190473
6677,,0.0037575341420614805
6678,,-0.0031853208209353667
6679,,-0.007305256733043386
6680,,-0.006618600747692049
6681,,-0.0037956816968032214
6682,,0.007724879835202537
6683,,0.014057373922331529
6684,,0.008487830930037354
6685,,0.004825665674830226
6686,,-0.008373388265812132
6687,,-0.007000076295109459
6688,,0.00040054932478827965
6689,,-0.00036240177004653873
6690,,0.009327077134355655
6691,,0.014667734798199383
6692,,0.005512321660181563
6693,,0.0009346150911726525
6694,,0.011310749980926182
6695,,0.009403372243839137
6696,,0.003986419470511926
6697,,0.007267109178301645
6698,,0.010471503776607882
6699,,0.011844815747310555
6700,,0.0009727626459143934
6701,,-0.0032234683756771076
6702,,0.00913633936064695
6703,,0.02409018081940939
6704,,0.008220798046845168
6705,,0.003490501258869294
6706,,0.0023460746166170665
6707,,0.00951781490806436
6708,,0.008373388265812132
6709,,0.006771190966659013
6710,,0.01737621118486299
6711,,0.0024223697261005483
6712,,-0.001163500419623098
6713,,-0.00207904173342488
6714,,0.0037956816968032214
6715,,0.015697718776226388
6716,,0.02409018081940939
6717,,0.011730373083085333
6718,,0.001201647974364839
6719,,-0.004520485236896299
6720,,-1.907377737087046e-05
6721,,0.0005149919890135024
6722,,0.00623712520027464
6723,,0.008220798046845168
6724,,0.007305256733043386
6725,,0.005855649652857231
6726,,0.002651255054550994
6727,,0.0051689936675058945
6728,,0.010051880674448732
6729,,0.009060044251163468
6730,,0.008602273594262577
6731,,0.002956435492484921
6732,,-0.0087167162584878
6733,,-0.007801174944686019
6734,,0.0037193865873197396
6735,,0.012951094834821042
6736,,0.017757686732280398
6737,,0.016079194323643797
6738,,-0.005359731441214599
6739,,-0.006809338521400754
6740,,-0.004367895017929335
6741,,0.00623712520027464
6742,,0.01829175249866477
6743,,0.015392538338292459
6744,,0.0002861066605630569
6745,,-0.008106355382619945
6746,,-0.0078774700541695
6747,,0.0019645990691996573
6748,,0.015392538338292459
6749,,0.009746700236514805
6750,,0.013332570382238451
6751,,0.008754863813229541
6752,,-0.005741206988632008
6753,,-0.008564126039520836
6754,,0.004634927901121522
6755,,0.0019645990691996573
6756,,0.013103685053788006
6757,,-0.0006294346532387252
6758,,0.0031853208209353667
6759,,0.007152666514076422
6760,,-0.0017738612954909527
6761,,0.005779354543373749
6762,,0.01035706111238266
6763,,0.018062867170214325
6764,,0.006160830090791158
6765,,-0.010318913557640919
6766,,-0.01451514457923242
6767,,-0.00017166399633783413
6768,,0.004406042572671076
6769,,0.011120012207217478
6770,,0.012798504615854078
6771,,0.012951094834821042
6772,,0.006313420309758122
6773,,-0.0004768444342717615
6774,,0.004940108339055449
6775,,0.004177157244220631
6776,,0.007763027389944278
6777,,0.005550469214923304
6778,,0.00539787899595634
6779,,-0.0074959945067520906
6780,,-0.0006294346532387252
6781,,0.01371404592965586
6782,,0.01989394979781789
6783,,0.020199130235751817
6784,,0.019207293812466553
6785,,0.017605096513313434
6786,,0.014782177462424606
6787,,0.019665064469367444
6788,,0.023022049286640645
6789,,0.03515297169451426
6790,,0.030422674906538383
6791,,0.02485313191424421
6792,,0.01913099870298307
6793,,0.026760509651331255
6794,,0.04316395819028022
6795,,0.050717174029144926
6796,,0.04247730220492888
6797,,0.044079499504082
6798,,0.04278248264286281
6799,,0.043545433737697634
6800,,0.027141985198748664
6801,,0.028973067826352228
6802,,0.03957808804455658
6803,,0.03957808804455658
6804,,0.03271152819104284
6805,,0.02035172045471878
6806,,0.014400701915007197
6807,,0.0236324101625085
6808,,0.013485160601205415
6809,,-0.006351567864499863
6810,,-0.02130540932326249
6811,,-0.045109483482108824
6812,,-0.055104142824444945
6813,,-0.0565537499046311
6814,,-0.03694590676737627
6815,,-0.0384718089570459
6816,,-0.03168154421301602
6817,,-0.07227054245822853
6818,,-0.08058670939192805
6819,,-0.07951857785915932
6820,,-0.08882658121614409
6821,,-0.08615625238422224
6822,,-0.06998168917372409
6823,,-0.07913710231174191
6824,,-0.07104982070649282
6825,,-0.062428473334859375
6826,,-0.045567254139009715
6827,,-0.03824292362859546
6828,,-0.010471503776607882
6829,,-0.011921110856794037
6830,,-0.002994583047226662
6831,,-0.007724879835202537
6832,,-0.0013923857480735435
6833,,-1.907377737087046e-05
6834,,0.026455329213397327
6835,,0.04209582665751148
6836,,0.05262455176623197
6837,,0.056439307240406064
6838,,0.05651560234988954
6839,,0.06193255512321675
6840,,0.055600061036087764
6841,,0.047360189211871725
6842,,0.04980163271534314
6843,,0.06017776760509667
6844,,0.05651560234988954
6845,,0.0474364843213552
6846,,0.03904402227817183
6847,,0.0436980239566646
6848,,0.04232471198596192
6849,,0.046063172350652534
6850,,0.04560540169375164
6851,,0.020962081330586635
6852,,0.004024567025253667
6853,,0.0015831235217822481
6854,,0.014476997024490679
6855,,0.021725032425421453
6856,,0.03141451132982365
6857,,0.022259098191805826
6858,,0.023556115053025017
6859,,0.009594110017547841
6860,,0.006466010528725086
6861,,0.020580605783169226
6862,,0.016918440527962098
6863,,0.013637750820172378
6864,,0.00745784695201035
6865,,-0.00017166399633783413
6866,,-0.006961928740367718
6867,,0.007610437170977313
6868,,0.01745250629434647
6869,,0.027141985198748664
6870,,0.02538719768062858
6871,,0.01081483176928355
6872,,-0.008640421149004318
6873,,-0.010547798886091364
6874,,0.007686732280460796
6875,,5.722133211261138e-05
6876,,0.011120012207217478
6877,,0.012493324177920151
6878,,0.002574959945067512
6879,,0.004940108339055449
6880,,0.00829709315632865
6881,,0.00013351644159609322
6882,,0.010433356221866141
6883,,0.019665064469367444
6884,,0.0070763714045929405
6885,,0.0017357137407492118
6886,,0.0023460746166170665
6887,,0.00539787899595634
6888,,0.01707103074692906
6889,,0.0303463797970549
6890,,0.02248798352025627
6891,,0.001125352864881357
6892,,0.0018120088502326936
6893,,0.0032616159304188486
6894,,0.006008239871824195
6895,,0.021343556878004044
6896,,0.023098344396124126
6897,,0.015087357900358533
6898,,-0.00024795910582131597
6899,,-0.002613107499809253
6900,,0.00165941863126573
6901,,0.014858472571908088
6902,,0.01325627527275497
6903,,0.017528801403829952
6904,,0.008525978484779095
6905,,0.0036430914778362578
6906,,-0.008564126039520836
6907,,-0.0037575341420614805
6908,,0.0027275501640344757
6909,,0.010585946440833105
6910,,0.01745250629434647
6911,,0.012493324177920151
6912,,0.012569619287403633
6913,,0.0018120088502326936
6914,,0.008678568703746059
6915,,0.011501487754634887
6916,,0.015011062790875052
6917,,0.00791561760891124
6918,,0.0051689936675058945
6919,,0.004863813229571967
6920,,0.0014305333028152845
6921,,-0.002155336842908362
6922,,0.008068207827878204
6923,,0.024395361257343318
6924,,0.008831158922713023
6925,,0.002193484397650103
6926,,0.006542305638208568
6927,,0.016765850308995134
6928,,0.012264438849469705
6929,,0.005474174105439822
6930,,-0.0056649118791485265
6931,,-0.014209964141298492
6932,,-0.007114518959334681
6933,,0.005855649652857231
6934,,0.012645914396887115
6935,,0.011577782864118369
6936,,0.022716868848706717
6937,,0.019359884031433516
6938,,0.0047112230106050035
6939,,0.0007438773174639479
6940,,-0.006961928740367718
6941,,-0.0016975661860074709
6942,,0.004482337682154558
6943,,0.015392538338292459
6944,,0.013485160601205415
6945,,-9.53688868543523e-05
6946,,0.008831158922713023
6947,,0.01905470359349959
6948,,0.024242771038376354
6949,,0.010662241550316587
6950,,0.004634927901121522
6951,,0.004177157244220631
6952,,0.007305256733043386
6953,,0.0032616159304188486
6954,,0.012798504615854078
6955,,0.013942931258106306
6956,,0.01287479972533756
6957,,0.013179980163271487
6958,,0.0015831235217822481
6959,,-0.002613107499809253
6960,,0.0017357137407492118
6961,,0.010891126878767032
6962,,0.014858472571908088
6963,,0.01661326009002817
6964,,0.006923781185625977
6965,,0.0018883039597161755
6966,,-0.01741435873960473
6967,,0.004100862134737149
6968,,0.015163653009842015
6969,,0.015850308995193352
6970,,0.01745250629434647
6971,,0.00623712520027464
6972,,-0.014362554360265456
6973,,-0.015278095674067238
6974,,0.01203555352101926
6975,,0.02248798352025627
6976,,0.02286945906767368
6977,,0.019741359578850926
6978,,0.010280766002899178
6979,,0.00020981155107957505
6980,,-0.005359731441214599
6981,,0.001125352864881357
6982,,0.008754863813229541
6983,,0.02035172045471878
6984,,0.004634927901121522
6985,,0.008144502937361686
6986,,0.00043869687953002057
6987,,0.006694895857175531
6988,,0.010128175783932214
6989,,0.02454795147631028
6990,,0.012951094834821042
6991,,-0.004444190127412817
6992,,-0.018406195162889993
6993,,-0.012378881513694928
6994,,0.009899290455481768
6995,,0.013942931258106306
6996,,0.008907454032196505
6997,,0.004787518120088485
6998,,0.0002861066605630569
6999,,0.0010490577553978753
7000,,0.004024567025253667
7001,,0.00623712520027464
7002,,0.01165407797360185
7003,,0.011730373083085333
7004,,0.002956435492484921
7005,,-0.004596780346379781
7006,,-0.003986419470511926
7007,,0.0013542381933318026
7008,,0.024166475928892872
7009,,0.02080949111161967
7010,,0.02035172045471878
7011,,0.007228961623559904
7012,,-0.002994583047226662
7013,,-0.004444190127412817
7014,,0.010585946440833105
7015,,0.013179980163271487
7016,,0.015239948119325497
7017,,0.011425192645151405
7018,,0.010738536659800069
7019,,0.0028801403830014394
7020,,-0.006961928740367718
7021,,-0.0014686808575570254
7022,,0.005550469214923304
7023,,0.014629587243457642
7024,,0.003490501258869294
7025,,0.010509651331349623
7026,,0.00020981155107957505
7027,,0.010051880674448732
7028,,-0.004520485236896299
7029,,0.00165941863126573
7030,,0.018444342717631734
7031,,-0.00413900968947889
7032,,-0.015430685893034202
7033,,-0.015659571221484647
7034,,0.005703059433890267
7035,,0.013027389944304524
7036,,0.02492942702372769
7037,,0.010967421988250514
7038,,0.001201647974364839
7039,,-0.006351567864499863
7040,,-0.012607766842145374
7041,,-0.011005569542992255
7042,,-0.012226291294727964
7043,,-0.0013160906385900617
7044,,-0.003070878156710144
7045,,0.0038719768062867033
7046,,0.009441519798580877
7047,,0.013408865491721933
7048,,0.0075341420614938315
7049,,-0.011768520637827073
7050,,-0.01245517662317841
7051,,0.001125352864881357
7052,,-0.0112344548714427
7053,,-0.016041046768902056
7054,,-0.002536812390325771
7055,,0.009594110017547841
7056,,0.02828641184100089
7057,,0.017757686732280398
7058,,0.015545128557259423
7059,,0.00043869687953002057
7060,,-0.00040054932478827965
7061,,-0.006275272755016381
7062,,0.005703059433890267
7063,,0.023556115053025017
7064,,0.016079194323643797
7065,,0.010585946440833105
7066,,0.0032616159304188486
7067,,0.00539787899595634
7068,,0.023556115053025017
7069,,0.021038376440070117
7070,,0.02164873731593797
7071,,0.016460669871061206
7072,,0.0023460746166170665
7073,,0.003948271915770185
7074,,0.011730373083085333
7075,,0.013790341039139342
7076,,0.017223620965896025
7077,,0.017147325856412543
7078,,0.018368047608148252
7079,,0.00020981155107957505
7080,,0.0022697795071335847
7081,,0.02073319600213619
7082,,0.02119096665903708
7083,,0.014019226367589788
7084,,0.014400701915007197
7085,,0.014629587243457642
7086,,0.008220798046845168
7087,,0.0047112230106050035
7088,,0.006618600747692049
7089,,0.003490501258869294
7090,,-0.0018501564049744346
7091,,0.018062867170214325
7092,,0.020199130235751817
7093,,0.008907454032196505
7094,,0.017147325856412543
7095,,0.012493324177920151
7096,,0.00829709315632865
7097,,-0.0017738612954909527
7098,,0.0013542381933318026
7099,,0.0028038452735179575
7100,,0.0042153047989623715
7101,,0.013370717936980192
7102,,0.01871137560082392
7103,,0.013828488593881083
7104,,0.0070382238498511995
7105,,0.008869306477454764
7106,,0.010547798886091364
7107,,0.02153429465171275
7108,,0.009021896696421727
7109,,0.0008583199816891707
7110,,0.0009346150911726525
7111,,0.009708552681773064
7112,,0.01581216144045161
7113,,0.010318913557640919
7114,,0.0038338292515449623
7115,,0.008258945601586909
7116,,0.00833524071107039
7117,,0.008030060273136463
7118,,0.007114518959334681
7119,,0.011081864652475737
7120,,0.0103952086671244
7121,,-0.0033379110399023304
7122,,0.004901960784313708
7123,,0.0046730754558632626
7124,,-0.0023460746166170665
7125,,-0.002193484397650103
7126,,0.011158159761959219
7127,,0.0103952086671244
7128,,0.010929274433508773
7129,,0.003147173266193626
7130,,0.008793011367971282
7131,,0.0024605172808422893
7132,,-0.0028801403830014394
7133,,0.006809338521400754
7134,,0.014591439688715901
7135,,0.015506981002517684
7136,,0.013828488593881083
7137,,0.014896620126649829
7138,,0.0056649118791485265
7139,,0.004749370565346744
7140,,-0.007763027389944278
7141,,0.00413900968947889
7142,,0.00993743801022351
7143,,0.024204623483634613
7144,,0.02283131151293194
7145,,0.003528648813611035
7146,,0.0028419928282596985
7147,,0.017185473411154284
7148,,0.007801174944686019
7149,,9.53688868543523e-05
7150,,0.007267109178301645
7151,,0.006351567864499863
7152,,0.004825665674830226
7153,,0.007801174944686019
7154,,0.0013160906385900617
7155,,0.0029182879377431803
7156,,0.012149996185244483
7157,,0.005359731441214599
7158,,0.0010109102006561344
7159,,0.0005531395437552433
7160,,0.0012397955291065799
7161,,0.00993743801022351
7162,,-0.002193484397650103
7163,,-0.001125352864881357
7164,,0.003604943923094517
7165,,0.005970092317082454
7166,,-0.0008964675364309116
7167,,-0.0006675822079804661
7168,,0.011692225528343592
7169,,0.007419699397268609
7170,,0.000705729762722207
7171,,-0.0036430914778362578
7172,,0.003070878156710144
7173,,0.005130846112764154
7174,,0.013599603265430638
7175,,0.013370717936980192
7176,,0.01581216144045161
7177,,0.008793011367971282
7178,,0.007190814068818163
7179,,0.005359731441214599
7180,,0.0007820248722056888
7181,,0.011539635309376628
7182,,0.016117341878385538
7183,,0.020923933775844894
7184,,0.0037575341420614805
7185,,-0.0002861066605630569
7186,,-0.004100862134737149
7187,,0.009784847791256546
7188,,0.022602426184481494
7189,,0.022678721293964976
7190,,0.011692225528343592
7191,,0.005512321660181563
7192,,0.009174486915388691
7193,,0.003147173266193626
7194,,0.0032997634851605895
7195,,0.0003242542153047978
7196,,0.0065804531929503085
7197,,0.009403372243839137
7198,,-0.004024567025253667
7199,,0.0020027466239413982
7200,,0.0022316319523918438
7201,,0.013599603265430638
7202,,0.024586099031052022
7203,,0.024357213702601577
7204,,0.00665674830243379
7205,,-0.005703059433890267
7206,,-0.01783398184176388
7207,,-0.0028038452735179575
7208,,0.007648584725719055
7209,,0.009021896696421727
7210,,0.007190814068818163
7211,,0.0061226825360494175
7212,,0.007572289616235572
7213,,0.006198977645532899
7214,,0.014057373922331529
7215,,0.012912947280079301
7216,,0.017566948958571693
7217,,-0.006466010528725086
7218,,-0.0017357137407492118
7219,,0.006198977645532899
7220,,-0.007152666514076422
7221,,-0.0005912870984969842
7222,,0.017566948958571693
7223,,0.018787670710307403
7224,,0.0015449759670405072
7225,,0.00207904173342488
7226,,-0.0022697795071335847
7227,,0.011844815747310555
7228,,0.017185473411154284
7229,,0.01779583428702214
7230,,0.001163500419623098
7231,,-0.0070763714045929405
7232,,-0.007381551842526868
7233,,-0.0018883039597161755
7234,,0.009861142900740028
7235,,0.020847638666361412
7236,,0.018177309834439548
7237,,0.006733043411917272
7238,,0.004596780346379781
7239,,0.005359731441214599
7240,,0.002536812390325771
7241,,0.0003242542153047978
7242,,0.013752193484397601
7243,,0.006885633630884236
7244,,0.014209964141298492
7245,,0.008487830930037354
7246,,0.005207141222247635
7247,,0.013752193484397601
7248,,0.012760357061112337
7249,,0.00497825589379719
7250,,0.012912947280079301
7251,,0.0046730754558632626
7252,,0.0029182879377431803
7253,,-0.004787518120088485
7254,,0.003910124361028444
7255,,0.01741435873960473
7256,,0.026264591439688623
7257,,0.013447013046463674
7258,,0.008945601586938245
7259,,-0.0060845349813076766
7260,,-0.01035706111238266
7261,,0.00017166399633783413
7262,,0.003070878156710144
7263,,0.01581216144045161
7264,,0.006351567864499863
7265,,0.010547798886091364
7266,,0.006198977645532899
7267,,0.016269932097352502
7268,,0.0056649118791485265
7269,,-0.0023460746166170665
7270,,0.0013160906385900617
7271,,0.004062714579995408
7272,,0.004291599908445853
7273,,0.003147173266193626
7274,,0.005207141222247635
7275,,0.008945601586938245
7276,,0.016117341878385538
7277,,0.007419699397268609
7278,,0.01657511253528643
7279,,0.0087167162584878
7280,,0.0022316319523918438
7281,,0.007801174944686019
7282,,0.01825360494392303
7283,,0.009403372243839137
7284,,0.0010872053101396162
7285,,-0.003490501258869294
7286,,0.0007820248722056888
7287,,0.011997405966277519
7288,,0.018787670710307403
7289,,0.02359426260776676
7290,,0.018863965819790884
7291,,0.011539635309376628
7292,,0.005741206988632008
7293,,-0.004024567025253667
7294,,-0.004482337682154558
7295,,0.0032234683756771076
7296,,0.013981078812848047
7297,,0.016727702754253393
7298,,0.012226291294727964
7299,,0.0037575341420614805
7300,,0.004329747463187594
7301,,0.011806668192568814
7302,,0.01119630731670096
7303,,0.01913099870298307
7304,,0.001125352864881357
7305,,-0.004367895017929335
7306,,-0.005970092317082454
7307,,0.0012779430838483208
7308,,0.005779354543373749
7309,,0.01653696498054469
7310,,0.018596932936598698
7311,,0.004024567025253667
7312,,-0.010624093995574846
7313,,-0.007953765163652982
7314,,-0.0023079270618753256
7315,,0.00997558556496525
7316,,0.026379034103913845
7317,,0.006618600747692049
7318,,-0.0023842221713588074
7319,,-0.014438849469748938
7320,,-0.02130540932326249
7321,,0.004329747463187594
7322,,0.01867322804608218
7323,,0.011577782864118369
7324,,0.014400701915007197
7325,,0.011043717097733996
7326,,-0.004825665674830226
7327,,-0.002994583047226662
7328,,0.0008201724269474298
7329,,0.005550469214923304
7330,,0.01653696498054469
7331,,0.0028038452735179575
7332,,-0.0010872053101396162
7333,,-0.00413900968947889
7334,,0.019665064469367444
7335,,0.024776836804760727
7336,,0.023479819943541536
7337,,0.009746700236514805
7338,,0.009899290455481768
7339,,-0.0018501564049744346
7340,,-0.00665674830243379
7341,,0.004482337682154558
7342,,0.009288929579613914
7343,,0.01577401388570987
7344,,0.01745250629434647
7345,,0.020122835126268335
7346,,0.01493476768139157
7347,,0.015239948119325497
7348,,0.005321583886472858
7349,,-0.0026894026092927348
7350,,-0.0023079270618753256
7351,,0.0008201724269474298
7352,,0.007152666514076422
7353,,0.013866636148622824
7354,,0.0202754253452353
7355,,0.018825818265049143
7356,,0.006313420309758122
7357,,-0.0023079270618753256
7358,,-0.0032997634851605895
7359,,0.006694895857175531
7360,,0.0075341420614938315
7361,,0.014248111696040233
7362,,0.00997558556496525
7363,,0.011730373083085333
7364,,0.007686732280460796
7365,,0.004329747463187594
7366,,0.0060845349813076766
7367,,0.01287479972533756
7368,,0.0070763714045929405
7369,,0.007610437170977313
7370,,0.00951781490806436
7371,,0.0017357137407492118
7372,,0.006160830090791158
7373,,0.005550469214923304
7374,,0.016308079652094243
7375,,0.015926604104676834
7376,,0.009212634470130432
7377,,0.009060044251163468
7378,,-0.00207904173342488
7379,,-0.005970092317082454
7380,,-0.003452353704127553
7381,,0.0056267643244067855
7382,,0.018062867170214325
7383,,0.016308079652094243
7384,,0.005855649652857231
7385,,0.002574959945067512
7386,,-0.004520485236896299
7387,,0.00539787899595634
7388,,-0.0009346150911726525
7389,,0.015621423666742905
7390,,0.021725032425421453
7391,,0.009594110017547841
7392,,0.0015831235217822481
7393,,-0.006504158083466827
7394,,0.007839322499427759
7395,,0.011120012207217478
7396,,0.011120012207217478
7397,,0.013942931258106306
7398,,0.012188143739986224
7399,,0.0005912870984969842
7400,,0.001125352864881357
7401,,0.014629587243457642
7402,,0.014248111696040233
7403,,0.018444342717631734
7404,,0.006923781185625977
7405,,-0.0004768444342717615
7406,,-0.007572289616235572
7407,,-0.009327077134355655
7408,,0.002040894178683139
7409,,0.009212634470130432
7410,,0.020580605783169226
7411,,0.016460669871061206
7412,,0.006466010528725086
7413,,-0.014820325017166347
7414,,0.006389715419241604
7415,,-0.0023842221713588074
7416,,-0.002536812390325771
7417,,0.015163653009842015
7418,,0.007991912718394723
7419,,-0.00665674830243379
7420,,0.009441519798580877
7421,,0.01707103074692906
7422,,0.019436179140916998
7423,,0.014858472571908088
7424,,0.012569619287403633
7425,,0.012188143739986224
7426,,0.014400701915007197
7427,,0.031109330891889716
7428,,0.0378995956359196
7429,,0.03362706950484462
7430,,0.03683146410315086
7431,,0.025082017242694654
7432,,0.0295071335927366
7433,,0.031795986877241056
7434,,0.04285877775234629
7435,,0.04446097505149941
7436,,0.05209048599984759
7437,,0.0370603494316013
7438,,0.035915922789349075
7439,,0.04201953154802799
7440,,0.053540093080033754
7441,,0.0411802853437097
7442,,0.0387388418402379
7443,,0.025234607461661618
7444,,0.008983749141679986
7445,,0.0018883039597161755
7446,,0.009288929579613914
7447,,0.027065690089265182
7448,,0.02164873731593797
7449,,0.017986572060730843
7450,,-0.00665674830243379
7451,,-0.02847714961470978
7452,,-0.05991073472190449
7453,,-0.08531700617990393
7454,,-0.054188601510643156
7455,,-0.035114824139772696
7456,,-0.03580148012512404
7457,,-0.039311055161364204
7458,,-0.07349126420996425
7459,,-0.09447241931792176
7460,,-0.08455405508506912
7461,,-0.07471198596169996
7462,,-0.06334401464866117
7463,,-0.06425955596246295
7464,,-0.08432516975661868
7465,,-0.07959487296864279
7466,,-0.0728809033340964
7467,,-0.048084992751964616
7468,,-0.02687495231555666
7469,,-0.007419699397268609
7470,,-0.006961928740367718
7471,,-0.0065804531929503085
7472,,-0.013599603265430638
7473,,-0.014209964141298492
7474,,0.01287479972533756
7475,,0.034618905928129884
7476,,0.051022354467078854
7477,,0.04110399023422621
7478,,0.05125123979552929
7479,,0.047817959868772617
7480,,0.05209048599984759
7481,,0.05285343709468241
7482,,0.05903334096284444
7483,,0.06406881818875423
7484,,0.05468451972228598
7485,,0.050488288700694474
7486,,0.0424010070954454
7487,,0.053845273517967675
7488,,0.046749828336003864
7489,,0.04583428702220208
7490,,0.05041199359121099
7491,,0.0244716563668268
7492,,0.008220798046845168
7493,,0.009441519798580877
7494,,0.024776836804760727
7495,,0.014705882352941124
7496,,0.025844968337529473
7497,,0.016079194323643797
7498,,0.007381551842526868
7499,,0.007000076295109459
7500,,0.0015449759670405072
7501,,0.0042153047989623715
7502,,0.010929274433508773
7503,,0.009708552681773064
7504,,0.0032997634851605895
7505,,0.0017738612954909527
7506,,-0.005245288776989376
7507,,0.00040054932478827965
7508,,-0.004177157244220631
7509,,0.008411535820553873
7510,,0.0027656977187762166
7511,,0.005512321660181563
7512,,0.0078774700541695
7513,,0.00497825589379719
7514,,0.011921110856794037
7515,,0.009708552681773064
7516,,0.005588616769665045
7517,,-0.0018883039597161755
7518,,-0.0060845349813076766
7519,,-0.005245288776989376
7520,,0.004444190127412817
7521,,0.021076523994811858
7522,,0.024357213702601577
7523,,0.01863508049134044
7524,,0.005741206988632008
7525,,0.0037575341420614805
7526,,-0.005703059433890267
7527,,-0.0028801403830014394
7528,,0.007724879835202537
7529,,0.013599603265430638
7530,,0.026264591439688623
7531,,0.012607766842145374
7532,,0.006046387426565936
7533,,0.004825665674830226
7534,,0.006885633630884236
7535,,-0.0018883039597161755
7536,,0.012378881513694928
7537,,0.013141832608529747
7538,,0.007343404287785127
7539,,0.0004768444342717615
7540,,0.0037575341420614805
7541,,0.011692225528343592
7542,,0.011310749980926182
7543,,0.006733043411917272
7544,,0.003528648813611035
7545,,0.01703288319218732
7546,,0.0024605172808422893
7547,,-0.0037193865873197396
7548,,0.0027656977187762166
7549,,0.005588616769665045
7550,,0.015506981002517684
7551,,0.005359731441214599
7552,,-0.0032616159304188486
7553,,0.0023079270618753256
7554,,0.018787670710307403
7555,,0.016041046768902056
7556,,0.011997405966277519
7557,,0.006198977645532899
7558,,0.007648584725719055
7559,,-0.004787518120088485
7560,,-0.007763027389944278
7561,,0.00413900968947889
7562,,0.016117341878385538
7563,,0.026493476768139068
7564,,0.01703288319218732
7565,,0.0033760585946440713
7566,,0.007419699397268609
7567,,0.010013733119706991
7568,,0.00413900968947889
7569,,0.004596780346379781
7570,,0.008182650492103427
7571,,0.0032997634851605895
7572,,0.0036812390325779987
7573,,0.015964751659418575
7574,,0.012760357061112337
7575,,0.013752193484397601
7576,,0.003528648813611035
7577,,0.006275272755016381
7578,,-0.003566796368352776
7579,,0.006275272755016381
7580,,0.0026894026092927348
7581,,0.004291599908445853
7582,,0.005588616769665045
7583,,0.010624093995574846
7584,,0.0019264515144579164
7585,,0.004444190127412817
7586,,0.0056649118791485265
7587,,0.0007820248722056888
7588,,0.012989242389562783
7589,,0.0026894026092927348
7590,,0.0032997634851605895
7591,,0.010624093995574846
7592,,0.0013160906385900617
7593,,0.0026894026092927348
7594,,0.010700389105058328
7595,,0.019703212024109185
7596,,0.018024719615472584
7597,,0.014057373922331529
7598,,0.0016975661860074709
7599,,0.0033760585946440713
7600,,0.005970092317082454
7601,,0.015506981002517684
7602,,0.02115281910429534
7603,,0.018406195162889993
7604,,0.015125505455100274
7605,,0.0070382238498511995
7606,,0.003528648813611035
7607,,0.01077668421454181
7608,,0.02161058976119623
7609,,0.014820325017166347
7610,,0.014057373922331529
7611,,0.005741206988632008
7612,,0.00024795910582131597
7613,,0.002155336842908362
7614,,0.008487830930037354
7615,,0.01863508049134044
7616,,0.017109178301670802
7617,,0.011005569542992255
7618,,0.004749370565346744
7619,,0.0003242542153047978
7620,,-0.0018883039597161755
7621,,0.010471503776607882
7622,,0.010013733119706991
7623,,0.006733043411917272
7624,,0.009708552681773064
7625,,0.0112344548714427
7626,,0.005054551003280672
7627,,0.0056649118791485265
7628,,0.013599603265430638
7629,,0.011158159761959219
7630,,0.006504158083466827
7631,,0.012607766842145374
7632,,0.004825665674830226
7633,,0.001163500419623098
7634,,0.006046387426565936
7635,,0.003070878156710144
7636,,0.017948424505989102
7637,,0.016727702754253393
7638,,0.008640421149004318
7639,,0.012302586404211446
7640,,-0.008373388265812132
7641,,0.005970092317082454
7642,,0.014286259250781974
7643,,0.007114518959334681
7644,,0.0042153047989623715
7645,,-0.002193484397650103
7646,,-0.003566796368352776
7647,,0.012378881513694928
7648,,0.017338063630121248
7649,,0.008487830930037354
7650,,0.011310749980926182
7651,,9.53688868543523e-05
7652,,-0.011882963302052296
7653,,-0.008220798046845168
7654,,0.01413366903181501
7655,,0.013065537499046265
7656,,0.021076523994811858
7657,,0.0014686808575570254
7658,,0.003147173266193626
7659,,0.0010872053101396162
7660,,-0.015316243228808977
7661,,0.005207141222247635
7662,,0.025501640344853804
7663,,0.021915770199130158
7664,,-0.006923781185625977
7665,,-0.004406042572671076
7666,,-0.00913633936064695
7667,,0.014362554360265456
7668,,0.009479667353322618
7669,,0.013141832608529747
7670,,0.01619363698786902
7671,,0.003452353704127553
7672,,-0.008678568703746059
7673,,-0.0014305333028152845
7674,,0.011081864652475737
7675,,0.001621271076523989
7676,,-0.0005912870984969842
7677,,0.0022316319523918438
7678,,0.005130846112764154
7679,,0.0029182879377431803
7680,,0.0070382238498511995
7681,,0.003452353704127553
7682,,0.004444190127412817
7683,,0.0078774700541695
7684,,-0.011501487754634887
7685,,-0.005931944762340713
7686,,-0.009899290455481768
7687,,-0.0015068284122987663
7688,,0.009861142900740028
7689,,0.004291599908445853
7690,,0.009479667353322618
7691,,-0.0036430914778362578
7692,,-0.010738536659800069
7693,,0.0023842221713588074
7694,,0.003910124361028444
7695,,0.0003242542153047978
7696,,0.007572289616235572
7697,,0.0046730754558632626
7698,,-0.0005912870984969842
7699,,0.0028419928282596985
7700,,0.003604943923094517
7701,,0.012684061951628856
7702,,0.015201800564583756
7703,,0.01413366903181501
7704,,-0.008068207827878204
7705,,-0.006618600747692049
7706,,-0.0007438773174639479
7707,,0.017338063630121248
7708,,0.025425345235370322
7709,,0.01825360494392303
7710,,0.017261768520637766
7711,,0.003910124361028444
7712,,-0.002956435492484921
7713,,-0.0028801403830014394
7714,,0.010471503776607882
7715,,0.02496757457846943
7716,,0.01741435873960473
7717,,0.007953765163652982
7718,,0.0070382238498511995
7719,,0.011539635309376628
7720,,0.003986419470511926
7721,,0.011692225528343592
7722,,0.006275272755016381
7723,,0.016422522316319466
7724,,0.011692225528343592
7725,,0.016041046768902056
7726,,0.0026894026092927348
7727,,0.00581750209811549
7728,,0.00497825589379719
7729,,0.023517967498283276
7730,,0.018101014724956066
7731,,0.018406195162889993
7732,,0.01161593041886011
7733,,-0.0015831235217822481
7734,,0.009479667353322618
7735,,0.012684061951628856
7736,,0.02161058976119623
7737,,0.010852979324025291
7738,,0.013141832608529747
7739,,0.01581216144045161
7740,,0.011310749980926182
7741,,0.017109178301670802
7742,,0.014438849469748938
7743,,0.006275272755016381
7744,,-0.0005149919890135024
7745,,-0.008983749141679986
7746,,0.00017166399633783413
7747,,0.014591439688715901
7748,,0.022297245746547567
7749,,0.01367589837491412
7750,,0.004825665674830226
7751,,0.0009346150911726525
7752,,-0.0022697795071335847
7753,,-0.010280766002899178
7754,,0.0006294346532387252
7755,,0.006733043411917272
7756,,0.008869306477454764
7757,,-0.001201647974364839
7758,,-0.0060845349813076766
7759,,-5.722133211261138e-05
7760,,0.01787212939650562
7761,,0.022602426184481494
7762,,0.016727702754253393
7763,,0.005130846112764154
7764,,-0.01081483176928355
7765,,-0.00165941863126573
7766,,-0.006771190966659013
7767,,0.012760357061112337
7768,,0.014896620126649829
7769,,0.02122911421377882
7770,,0.014591439688715901
7771,,0.003528648813611035
7772,,0.005970092317082454
7773,,0.010700389105058328
7774,,0.014438849469748938
7775,,0.012302586404211446
7776,,0.005283436331731117
7777,,-0.0022697795071335847
7778,,0.002155336842908362
7779,,0.0095559624628061
7780,,0.003604943923094517
7781,,0.0033760585946440713
7782,,0.00497825589379719
7783,,0.008258945601586909
7784,,0.005588616769665045
7785,,0.0029182879377431803
7786,,0.006046387426565936
7787,,0.011081864652475737
7788,,0.005741206988632008
7789,,0.0022316319523918438
7790,,-0.005321583886472858
7791,,-0.0042534523537041125
7792,,-0.0060845349813076766
7793,,-0.00013351644159609322
7794,,0.01077668421454181
7795,,0.011921110856794037
7796,,0.01955062180514222
7797,,0.005893797207598972
7798,,0.008411535820553873
7799,,0.003452353704127553
7800,,-0.004177157244220631
7801,,0.004291599908445853
7802,,0.009479667353322618
7803,,0.01535439078355072
7804,,-0.0018120088502326936
7805,,0.0037575341420614805
7806,,0.005512321660181563
7807,,0.014744029907682865
7808,,0.029774166475928787
7809,,0.008945601586938245
7810,,0.0036812390325779987
7811,,0.0013160906385900617
7812,,-0.009670405127031323
7813,,-0.0022697795071335847
7814,,0.024738689250018986
7815,,0.01955062180514222
7816,,0.017109178301670802
7817,,0.00040054932478827965
7818,,-0.003032730601968403
7819,,-0.006694895857175531
7820,,0.006046387426565936
7821,,0.009327077134355655
7822,,0.014896620126649829
7823,,0.02573052567330425
7824,,0.010013733119706991
7825,,0.0023079270618753256
7826,,-0.0037193865873197396
7827,,-0.0009727626459143934
7828,,0.010624093995574846
7829,,0.013141832608529747
7830,,0.012073701075761
7831,,0.01161593041886011
7832,,0.0004768444342717615
7833,,0.008640421149004318
7834,,0.013752193484397601
7835,,0.01413366903181501
7836,,0.014820325017166347
7837,,-0.005931944762340713
7838,,-0.009746700236514805
7839,,0.0027656977187762166
7840,,0.022220950637064085
7841,,0.024738689250018986
7842,,0.012989242389562783
7843,,0.005512321660181563
7844,,-0.009212634470130432
7845,,-0.0036430914778362578
7846,,0.00040054932478827965
7847,,-0.0028801403830014394
7848,,0.012607766842145374
7849,,0.019626916914625703
7850,,0.013065537499046265
7851,,0.004367895017929335
7852,,0.005207141222247635
7853,,-0.004482337682154558
7854,,-0.00249866483558403
7855,,0.006504158083466827
7856,,0.0019264515144579164
7857,,-0.00165941863126573
7858,,0.0013160906385900617
7859,,0.004520485236896299
7860,,0.011005569542992255
7861,,0.017643244068055175
7862,,0.014057373922331529
7863,,0.003147173266193626
7864,,-0.003566796368352776
7865,,-0.004329747463187594
7866,,-0.005474174105439822
7867,,0.010090028229190473
7868,,0.025501640344853804
7869,,0.018482490272373475
7870,,0.007953765163652982
7871,,0.0022316319523918438
7872,,-0.0037956816968032214
7873,,0.010090028229190473
7874,,0.009632257572289582
7875,,0.01451514457923242
7876,,0.023746852826733722
7877,,0.005436026550698081
7878,,0.008793011367971282
7879,,0.002613107499809253
7880,,-0.004100862134737149
7881,,0.010700389105058328
7882,,0.015888456549935093
7883,,0.01703288319218732
7884,,0.0014686808575570254
7885,,0.0003242542153047978
7886,,0.0015449759670405072
7887,,0.01245517662317841
7888,,0.011692225528343592
7889,,0.008258945601586909
7890,,0.007572289616235572
7891,,0.0018501564049744346
7892,,-0.0032616159304188486
7893,,-0.0022697795071335847
7894,,0.009174486915388691
7895,,0.01695658808270384
7896,,0.01283665217059582
7897,,0.004062714579995408
7898,,1.907377737087046e-05
7899,,0.0024605172808422893
7900,,0.009250782024872173
7901,,0.011310749980926182
7902,,0.016041046768902056
7903,,0.008258945601586909
7904,,0.004367895017929335
7905,,-0.005703059433890267
7906,,0.0023079270618753256
7907,,0.009327077134355655
7908,,0.01451514457923242
7909,,0.01993209735255963
7910,,0.015201800564583756
7911,,-0.0015068284122987663
7912,,0.0019264515144579164
7913,,-0.003109025711451885
7914,,0.014057373922331529
7915,,0.01245517662317841
7916,,0.014209964141298492
7917,,-0.00249866483558403
7918,,-0.005016403448538931
7919,,-0.0034142061493858122
7920,,0.003147173266193626
7921,,0.015278095674067238
7922,,0.024738689250018986
7923,,0.011387045090409664
7924,,0.008182650492103427
7925,,0.0010109102006561344
7926,,-0.009212634470130432
7927,,0.0026894026092927348
7928,,0.0008583199816891707
7929,,0.0005531395437552433
7930,,0.01749065384908821
7931,,0.012760357061112337
7932,,0.01657511253528643
7933,,0.012989242389562783
7934,,0.0061226825360494175
7935,,0.018101014724956066
7936,,0.017185473411154284
7937,,0.005207141222247635
7938,,0.0032997634851605895
7939,,0.002155336842908362
7940,,-0.0002861066605630569
7941,,0.02206836041809712
7942,,0.021381704432745785
7943,,0.022907606622415422
7944,,0.015430685893034202
7945,,0.0061226825360494175
7946,,0.009632257572289582
7947,,0.008869306477454764
7948,,0.013904783703364565
7949,,0.011692225528343592
7950,,0.003986419470511926
7951,,0.00581750209811549
7952,,-0.0038719768062867033
7953,,0.00581750209811549
7954,,0.008869306477454764
7955,,0.009327077134355655
7956,,0.011081864652475737
7957,,0.013904783703364565
7958,,0.001621271076523989
7959,,-0.00455863279163804
7960,,0.0004768444342717615
7961,,-0.0034142061493858122
7962,,-0.007228961623559904
7963,,0.0017738612954909527
7964,,-0.002193484397650103
7965,,-0.004787518120088485
7966,,0.005054551003280672
7967,,0.014286259250781974
7968,,0.0087167162584878
7969,,-0.006160830090791158
7970,,0.007648584725719055
7971,,-0.011043717097733996
7972,,-0.014476997024490679
7973,,-0.009441519798580877
7974,,0.0009346150911726525
7975,,0.009708552681773064
7976,,0.011005569542992255
7977,,0.0024605172808422893
7978,,0.011539635309376628
7979,,0.00993743801022351
7980,,-0.007763027389944278
7981,,-0.007228961623559904
7982,,0.007114518959334681
7983,,0.0018501564049744346
7984,,0.0042153047989623715
7985,,0.007801174944686019
7986,,0.007572289616235572
7987,,0.01947432669565874
7988,,0.015964751659418575
7989,,0.01451514457923242
7990,,0.013447013046463674
7991,,0.008564126039520836
7992,,-0.0005149919890135024
7993,,0.00497825589379719
7994,,0.012531471732661892
7995,,0.017643244068055175
7996,,0.03160524910353235
7997,,0.016727702754253393
7998,,0.0032234683756771076
7999,,0.007419699397268609
8000,,0.010090028229190473
8001,,0.016041046768902056
8002,,0.01413366903181501
8003,,0.00833524071107039
8004,,-0.008373388265812132
8005,,0.0095559624628061
8006,,0.008487830930037354
8007,,0.003147173266193626
8008,,0.013370717936980192
8009,,0.0012397955291065799
8010,,0.005130846112764154
8011,,-0.0015831235217822481
8012,,-0.0022697795071335847
8013,,0.006351567864499863
8014,,0.006733043411917272
8015,,0.0013923857480735435
8016,,0.00017166399633783413
8017,,0.0013923857480735435
8018,,-0.00036240177004653873
8019,,-0.0010490577553978753
8020,,0.00207904173342488
8021,,0.003604943923094517
8022,,0.011158159761959219
8023,,0.008487830930037354
8024,,-0.01081483176928355
8025,,0.0015449759670405072
8026,,0.0007820248722056888
8027,,0.008869306477454764
8028,,0.010471503776607882
8029,,0.014667734798199383
8030,,0.008564126039520836
8031,,-0.0023460746166170665
8032,,0.005436026550698081
8033,,-0.00249866483558403
8034,,0.0056649118791485265
8035,,0.008564126039520836
8036,,0.01497291523613331
8037,,0.003147173266193626
8038,,0.0006294346532387252
8039,,0.007190814068818163
8040,,0.010090028229190473
8041,,0.0038338292515449623
8042,,0.003452353704127553
8043,,-0.0015831235217822481
8044,,0.00017166399633783413
8045,,0.010471503776607882
8046,,9.53688868543523e-05
8047,,-0.009365224689097396
8048,,0.007801174944686019
8049,,0.004901960784313708
8050,,0.014057373922331529
8051,,0.004520485236896299
8052,,-0.0070763714045929405
8053,,-0.01287479972533756
8054,,0.004901960784313708
8055,,0.015125505455100274
8056,,0.015659571221484647
8057,,0.008945601586938245
8058,,-0.00043869687953002057
8059,,-0.010509651331349623
8060,,-0.004863813229571967
8061,,0.010852979324025291
8062,,0.01916914625772481
8063,,0.013218127718013228
8064,,0.0032997634851605895
8065,,-0.00013351644159609322
8066,,-0.002117189288166621
8067,,0.00581750209811549
8068,,0.010471503776607882
8069,,0.00497825589379719
8070,,0.004596780346379781
8071,,0.0074959945067520906
8072,,-0.0036430914778362578
8073,,0.00581750209811549
8074,,0.015888456549935093
8075,,0.016117341878385538
8076,,0.004444190127412817
8077,,0.004749370565346744
8078,,0.01909285114824133
8079,,0.009403372243839137
8080,,0.0087167162584878
8081,,0.01985580224307615
8082,,0.03114747844663146
8083,,0.03809033340962831
8084,,0.028095674067292187
8085,,0.015430685893034202
8086,,0.019321736476691775
8087,,0.028019378957808705
8088,,0.04671168078126213
8089,,0.04121843289845143
8090,,0.04121843289845143
8091,,0.03320744640268547
8092,,0.03374151216906984
8093,,0.03397039749752029
8094,,0.04167620355535232
8095,,0.02824826428625915
8096,,0.02534905012588684
8097,,0.013065537499046265
8098,,0.02367055771725024
8099,,0.02077134355687793
8100,,0.015850308995193352
8101,,0.0211146715495536
8102,,0.020122835126268335
8103,,0.0010490577553978753
8104,,-0.027790493629358443
8105,,-0.04442282749675749
8106,,-0.052662699320973526
8107,,-0.042591744869153916
8108,,-0.03778515297169457
8109,,-0.03274967574578476
8110,,-0.04777981231403069
8111,,-0.06845578698405444
8112,,-0.08012893873502717
8113,,-0.07501716639963389
8114,,-0.06418326085297947
8115,,-0.06204699778744198
8116,,-0.06250476844434286
8117,,-0.05815594720378421
8118,,-0.0811970702677959
8119,,-0.07349126420996425
8120,,-0.05586709391927976
8121,,-0.037174792095826706
8122,,-0.014591439688715901
8123,,-0.0029182879377431803
8124,,-0.0024605172808422893
8125,,-0.0037575341420614805
8126,,0.008144502937361686
8127,,0.020962081330586635
8128,,0.023937590600442427
8129,,0.0337033646143281
8130,,0.043240253299763706
8131,,0.051403830014496256
8132,,0.055981536583505166
8133,,0.059719996948195776
8134,,0.05727855344472436
8135,,0.0558289463645382
8136,,0.05933852140077837
8137,,0.05109864957656233
8138,,0.04613946746013601
8139,,0.06391622796978728
8140,,0.057125963225757394
8141,,0.05903334096284444
8142,,0.04949645227740921
8143,,0.03126192111085668
8144,,0.021419851987487526
8145,,0.011882963302052296
8146,,0.009441519798580877
8147,,0.021419851987487526
8148,,0.0278286411841
8149,,0.030880445563439277
8150,,0.022106507972838862
8151,,-0.0017738612954909527
8152,,0.0005149919890135024
8153,,0.011730373083085333
8154,,0.014476997024490679
8155,,0.017299916075379507
8156,,0.01035706111238266
8157,,-0.003528648813611035
8158,,-0.001163500419623098
8159,,0.005550469214923304
8160,,0.0033379110399023304
8161,,0.016765850308995134
8162,,0.023327229724574572
8163,,0.005703059433890267
8164,,0.006160830090791158
8165,,0.0018883039597161755
8166,,0.008907454032196505
8167,,0.01081483176928355
8168,,0.014248111696040233
8169,,0.016308079652094243
8170,,0.008907454032196505
8171,,0.0047112230106050035
8172,,0.0028801403830014394
8173,,0.012264438849469705
8174,,0.015011062790875052
8175,,0.013408865491721933
8176,,0.011120012207217478
8177,,0.0042534523537041125
8178,,0.010662241550316587
8179,,0.0007438773174639479
8180,,0.009288929579613914
8181,,0.0211146715495536
8182,,0.016460669871061206
8183,,0.004634927901121522
8184,,0.004634927901121522
8185,,0.004024567025253667
8186,,0.009899290455481768
8187,,0.015087357900358533
8188,,0.007686732280460796
8189,,0.01707103074692906
8190,,0.011120012207217478
8191,,0.004940108339055449
8192,,0.00539787899595634
8193,,0.00455863279163804
8194,,0.008144502937361686
8195,,0.01409552147707327
8196,,0.02157244220645449
8197,,0.00020981155107957505
8198,,0.004100862134737149
8199,,5.722133211261138e-05
8200,,0.0037575341420614805
8201,,0.02573052567330425
8202,,0.01749065384908821
8203,,-0.0024223697261005483
8204,,-0.010280766002899178
8205,,-0.004177157244220631
8206,,-0.0019645990691996573
8207,,0.0038338292515449623
8208,,0.015125505455100274
8209,,0.018177309834439548
8210,,0.010166323338673955
8211,,0.008869306477454764
8212,,-0.004482337682154558
8213,,-0.0038719768062867033
8214,,0.007267109178301645
8215,,0.006275272755016381
8216,,0.013447013046463674
8217,,0.0007820248722056888
8218,,0.007801174944686019
8219,,0.006198977645532899
8220,,0.012149996185244483
8221,,0.011692225528343592
8222,,0.02115281910429534
8223,,0.0095559624628061
8224,,-0.0005912870984969842
8225,,0.007343404287785127
8226,,-0.0005149919890135024
8227,,0.010090028229190473
8228,,0.01779583428702214
8229,,0.005436026550698081
8230,,0.00413900968947889
8231,,0.005130846112764154
8232,,0.007801174944686019
8233,,0.011539635309376628
8234,,0.010318913557640919
8235,,0.016346227206835984
8236,,0.0061226825360494175
8237,,0.0007820248722056888
8238,,-0.006389715419241604
8239,,-0.00020981155107957505
8240,,-0.0018883039597161755
8241,,0.017261768520637766
8242,,0.012302586404211446
8243,,0.010852979324025291
8244,,0.006809338521400754
8245,,-0.0023460746166170665
8246,,0.008945601586938245
8247,,0.015201800564583756
8248,,0.011768520637827073
8249,,0.0036812390325779987
8250,,0.010700389105058328
8251,,-0.003032730601968403
8252,,-0.0018120088502326936
8253,,0.0028419928282596985
8254,,0.020160982681010076
8255,,0.02031357289997704
8256,,0.02038986800946052
8257,,0.013218127718013228
8258,,0.0032997634851605895
8259,,-0.0028038452735179575
8260,,0.00024795910582131597
8261,,0.0056649118791485265
8262,,0.017338063630121248
8263,,0.008106355382619945
8264,,0.006351567864499863
8265,,0.003452353704127553
8266,,0.005436026550698081
8267,,0.010166323338673955
8268,,0.015583276112001165
8269,,0.010242618448157437
8270,,0.0032234683756771076
8271,,0.0010872053101396162
8272,,-0.00036240177004653873
8273,,0.0006294346532387252
8274,,0.009250782024872173
8275,,0.014896620126649829
8276,,0.01535439078355072
8277,,0.005741206988632008
8278,,0.005130846112764154
8279,,-0.00013351644159609322
8280,,0.00040054932478827965
8281,,0.009708552681773064
8282,,0.0103952086671244
8283,,0.010166323338673955
8284,,0.005054551003280672
8285,,0.005359731441214599
8286,,-0.00249866483558403
8287,,-0.0005149919890135024
8288,,0.024814984359502468
8289,,0.011921110856794037
8290,,0.009708552681773064
8291,,-0.0017357137407492118
8292,,-0.00249866483558403
8293,,-0.001201647974364839
8294,,0.007648584725719055
8295,,0.012684061951628856
8296,,0.00833524071107039
8297,,0.013065537499046265
8298,,-5.722133211261138e-05
8299,,0.0024605172808422893
8300,,0.007839322499427759
8301,,0.012188143739986224
8302,,0.014629587243457642
8303,,-0.00040054932478827965
8304,,0.0028038452735179575
8305,,0.0018883039597161755
8306,,-0.00207904173342488
8307,,-0.00017166399633783413
8308,,0.011730373083085333
8309,,0.006694895857175531
8310,,0.01821545738918129
8311,,0.010891126878767032
8312,,-0.002613107499809253
8313,,0.004863813229571967
8314,,0.004634927901121522
8315,,0.004024567025253667
8316,,0.007839322499427759
8317,,-0.007190814068818163
8318,,-0.0024605172808422893
8319,,-0.0026894026092927348
8320,,0.009899290455481768
8321,,0.021419851987487526
8322,,0.022945754177157163
8323,,0.006542305638208568
8324,,-0.003070878156710144
8325,,-0.005054551003280672
8326,,-0.002155336842908362
8327,,-0.00665674830243379
8328,,0.003490501258869294
8329,,0.02035172045471878
8330,,0.005855649652857231
8331,,0.005855649652857231
8332,,-0.0017738612954909527
8333,,0.002117189288166621
8334,,-0.007267109178301645
8335,,0.0031853208209353667
8336,,0.009441519798580877
8337,,0.002651255054550994
8338,,-0.006885633630884236
8339,,-0.0078774700541695
8340,,-0.004749370565346744
8341,,0.00013351644159609322
8342,,0.007228961623559904
8343,,0.006008239871824195
8344,,-0.0038338292515449623
8345,,-0.008106355382619945
8346,,-0.00413900968947889
8347,,0.006008239871824195
8348,,-0.007267109178301645
8349,,0.006466010528725086
8350,,0.008144502937361686
8351,,-0.003910124361028444
8352,,-0.00833524071107039
8353,,0.008525978484779095
8354,,0.016765850308995134
8355,,0.011425192645151405
8356,,-0.0005531395437552433
8357,,0.009594110017547841
8358,,0.008525978484779095
8359,,-0.0005531395437552433
8360,,0.006008239871824195
8361,,0.012188143739986224
8362,,0.01287479972533756
8363,,0.011425192645151405
8364,,0.004100862134737149
8365,,0.00539787899595634
8366,,0.01989394979781789
8367,,0.02821011673151741
8368,,0.01699473563744558
8369,,0.012951094834821042
8370,,-0.00909819180590521
8371,,-0.0026894026092927348
8372,,0.0023460746166170665
8373,,0.012798504615854078
8374,,0.02073319600213619
8375,,0.024395361257343318
8376,,0.02409018081940939
8377,,0.011425192645151405
8378,,0.006923781185625977
8379,,0.004100862134737149
8380,,0.0070763714045929405
8381,,0.005474174105439822
8382,,0.017986572060730843
8383,,0.00997558556496525
8384,,0.006313420309758122
8385,,0.015239948119325497
8386,,0.018368047608148252
8387,,0.01951247425040048
8388,,0.013942931258106306
8389,,0.010662241550316587
8390,,0.013637750820172378
8391,,0.008907454032196505
8392,,-0.0004768444342717615
8393,,0.017605096513313434
8394,,0.014171816586556751
8395,,0.00791561760891124
8396,,0.011425192645151405
8397,,0.013942931258106306
8398,,0.010509651331349623
8399,,0.006923781185625977
8400,,0.011692225528343592
8401,,0.018558785381856957
8402,,0.014057373922331529
8403,,0.005512321660181563
8404,,0.0004768444342717615
8405,,-0.002956435492484921
8406,,0.004825665674830226
8407,,0.011768520637827073
8408,,0.012531471732661892
8409,,0.016498817425802947
8410,,0.006809338521400754
8411,,-0.0033379110399023304
8412,,0.0003242542153047978
8413,,0.011310749980926182
8414,,0.013141832608529747
8415,,0.011921110856794037
8416,,0.004901960784313708
8417,,-0.0024223697261005483
8418,,0.00017166399633783413
8419,,0.006961928740367718
8420,,0.0014686808575570254
8421,,0.019321736476691775
8422,,0.016422522316319466
8423,,0.005512321660181563
8424,,-0.00020981155107957505
8425,,0.005054551003280672
8426,,0.004444190127412817
8427,,0.017643244068055175
8428,,0.017109178301670802
8429,,0.015506981002517684
8430,,0.005054551003280672
8431,,-0.003948271915770185
8432,,0.0027656977187762166
8433,,0.003910124361028444
8434,,0.012226291294727964
8435,,0.018406195162889993
8436,,0.016422522316319466
8437,,0.006198977645532899
8438,,0.010090028229190473
8439,,0.004291599908445853
8440,,-0.0010490577553978753
8441,,0.0003242542153047978
8442,,0.008640421149004318
8443,,0.006275272755016381
8444,,0.009708552681773064
8445,,0.0006294346532387252
8446,,0.006885633630884236
8447,,0.009479667353322618
8448,,0.008030060273136463
8449,,0.006885633630884236
8450,,0.0007820248722056888
8451,,0.00040054932478827965
8452,,-0.004482337682154558
8453,,0.008411535820553873
8454,,0.010471503776607882
8455,,0.01993209735255963
8456,,0.005054551003280672
8457,,0.007801174944686019
8458,,0.0009346150911726525
8459,,0.000705729762722207
8460,,0.007572289616235572
8461,,0.007572289616235572
8462,,0.013370717936980192
8463,,0.009021896696421727
8464,,0.010013733119706991
8465,,0.0019264515144579164
8466,,0.0006294346532387252
8467,,0.006504158083466827
8468,,0.013981078812848047
8469,,0.011387045090409664
8470,,0.006351567864499863
8471,,0.0028419928282596985
8472,,0.0023079270618753256
8473,,0.011081864652475737
8474,,0.012378881513694928
8475,,-0.002040894178683139
8476,,0.004291599908445853
8477,,-0.0024223697261005483
8478,,0.005741206988632008
8479,,0.0032234683756771076
8480,,0.009174486915388691
8481,,0.012302586404211446
8482,,0.017948424505989102
8483,,0.0012397955291065799
8484,,1.907377737087046e-05
8485,,0.0003242542153047978
8486,,0.0027656977187762166
8487,,0.007190814068818163
8488,,0.012531471732661892
8489,,0.009708552681773064
8490,,0.005588616769665045
8491,,-0.0013542381933318026
8492,,0.007114518959334681
8493,,0.006427862973983345
8494,,0.016880292973220357
8495,,0.013523308155947156
8496,,0.014591439688715901
8497,,0.010013733119706991
8498,,0.005359731441214599
8499,,-0.007610437170977313
8500,,-0.0032616159304188486
8501,,0.01497291523613331
8502,,0.022144655527580603
8503,,0.012531471732661892
8504,,0.006427862973983345
8505,,0.0061226825360494175
8506,,0.0018501564049744346
8507,,0.010013733119706991
8508,,0.015201800564583756
8509,,0.010929274433508773
8510,,0.006427862973983345
8511,,-0.001201647974364839
8512,,-0.004024567025253667
8513,,0.007190814068818163
8514,,0.011005569542992255
8515,,0.017261768520637766
8516,,0.022526131074998013
8517,,0.00207904173342488
8518,,-0.010509651331349623
8519,,-0.00623712520027464
8520,,-0.0005912870984969842
8521,,0.011768520637827073
8522,,0.028858625162127005
8523,,0.010013733119706991
8524,,-0.00036240177004653873
8525,,-0.007228961623559904
8526,,-0.0019645990691996573
8527,,0.0013160906385900617
8528,,0.011692225528343592
8529,,0.015430685893034202
8530,,0.009708552681773064
8531,,-0.003566796368352776
8532,,0.005207141222247635
8533,,0.0036812390325779987
8534,,0.008945601586938245
8535,,0.016117341878385538
8536,,0.016346227206835984
8537,,0.004444190127412817
8538,,0.00040054932478827965
8539,,-0.001125352864881357
8540,,0.006809338521400754
8541,,0.020237277790493557
8542,,0.0112344548714427
8543,,0.0087167162584878
8544,,0.00909819180590521
8545,,0.0038338292515449623
8546,,0.013599603265430638
8547,,0.01161593041886011
8548,,0.008869306477454764
8549,,0.007572289616235572
8550,,0.007724879835202537
8551,,0.010547798886091364
8552,,0.006733043411917272
8553,,0.0037575341420614805
8554,,0.005970092317082454
8555,,0.0103952086671244
8556,,0.007953765163652982
8557,,0.0042153047989623715
8558,,0.003070878156710144
8559,,0.004444190127412817
8560,,0.006733043411917272
8561,,0.014057373922331529
8562,,0.01573586633096813
8563,,0.0070382238498511995
8564,,0.007419699397268609
8565,,-0.008373388265812132
8566,,-0.00455863279163804
8567,,0.0005531395437552433
8568,,0.01581216144045161
8569,,0.015430685893034202
8570,,0.004062714579995408
8571,,0.003604943923094517
8572,,-0.00043869687953002057
8573,,0.009784847791256546
8574,,0.020618753337910967
8575,,0.015430685893034202
8576,,-0.007152666514076422
8577,,-0.0028038452735179575
8578,,-0.0012779430838483208
8579,,-0.0023460746166170665
8580,,0.007648584725719055
8581,,0.021763179980163194
8582,,0.01741435873960473
8583,,0.0087167162584878
8584,,-0.005931944762340713
8585,,-0.008449683375295614
8586,,0.0061226825360494175
8587,,0.004291599908445853
8588,,0.012989242389562783
8589,,0.01825360494392303
8590,,0.01581216144045161
8591,,0.0014686808575570254
8592,,-0.007228961623559904
8593,,0.0023842221713588074
8594,,0.00413900968947889
8595,,0.01787212939650562
8596,,0.01451514457923242
8597,,0.010929274433508773
8598,,0.006885633630884236
8599,,0.002994583047226662
8600,,0.013103685053788006
8601,,0.020656900892652708
8602,,0.015087357900358533
8603,,0.010280766002899178
8604,,0.0008964675364309116
8605,,-0.005054551003280672
8606,,0.011882963302052296
8607,,0.030041199359120974
8608,,0.027218280308232146
8609,,0.007610437170977313
8610,,-0.0013160906385900617
8611,,0.0012779430838483208
8612,,0.005245288776989376
8613,,0.013561455710688897
8614,,0.017986572060730843
8615,,0.022335393301289308
8616,,0.010585946440833105
8617,,-0.00665674830243379
8618,,-0.0033760585946440713
8619,,0.002956435492484921
8620,,0.010509651331349623
8621,,0.007991912718394723
8622,,0.007000076295109459
8623,,0.0036430914778362578
8624,,-0.003528648813611035
8625,,-0.0013160906385900617
8626,,0.0017357137407492118
8627,,0.014019226367589788
8628,,0.005321583886472858
8629,,-0.0010872053101396162
8630,,-0.0036812390325779987
8631,,-0.006809338521400754
8632,,0.002193484397650103
8633,,0.0034142061493858122
8634,,0.0012779430838483208
8635,,0.003490501258869294
8636,,0.006847486076142495
8637,,0.0019645990691996573
8638,,0.0018120088502326936
8639,,0.0036430914778362578
8640,,0.00539787899595634
8641,,0.011120012207217478
8642,,0.015087357900358533
8643,,0.0005912870984969842
8644,,-0.007648584725719055
8645,,-0.0028419928282596985
8646,,0.004100862134737149
8647,,0.012188143739986224
8648,,0.014629587243457642
8649,,0.0219539177538719
8650,,0.013179980163271487
8651,,-9.53688868543523e-05
8652,,0.0034142061493858122
8653,,0.006160830090791158
8654,,0.004863813229571967
8655,,0.010585946440833105
8656,,0.009899290455481768
8657,,0.009899290455481768
8658,,0.007686732280460796
8659,,0.014858472571908088
8660,,0.01409552147707327
8661,,0.00951781490806436
8662,,0.00791561760891124
8663,,0.003948271915770185
8664,,0.0008201724269474298
8665,,0.0005912870984969842
8666,,0.014019226367589788
8667,,0.018368047608148252
8668,,0.01737621118486299
8669,,0.014019226367589788
8670,,-0.004520485236896299
8671,,-0.004825665674830226
8672,,-0.004520485236896299
8673,,0.01165407797360185
8674,,0.015087357900358533
8675,,0.019207293812466553
8676,,0.013408865491721933
8677,,0.002193484397650103
8678,,-0.00024795910582131597
8679,,0.0019645990691996573
8680,,0.005779354543373749
8681,,0.010662241550316587
8682,,0.013485160601205415
8683,,0.007763027389944278
8684,,0.0027275501640344757
8685,,0.004177157244220631
8686,,0.009670405127031323
8687,,0.015697718776226388
8688,,0.01165407797360185
8689,,0.006618600747692049
8690,,0.0047112230106050035
8691,,-0.0029182879377431803
8692,,-0.0024605172808422893
8693,,0.007991912718394723
8694,,0.01081483176928355
8695,,0.014705882352941124
8696,,0.00997558556496525
8697,,0.005016403448538931
8698,,-0.0007820248722056888
8699,,0.0028801403830014394
8700,,0.002536812390325771
8701,,0.007190814068818163
8702,,0.01535439078355072
8703,,0.010852979324025291
8704,,0.007648584725719055
8705,,0.0020027466239413982
8706,,0.008411535820553873
8707,,0.012760357061112337
8708,,0.013141832608529747
8709,,0.013904783703364565
8710,,0.014591439688715901
8711,,0.008640421149004318
8712,,-0.0031853208209353667
8713,,0.006198977645532899
8714,,0.015506981002517684
8715,,0.02115281910429534
8716,,0.014667734798199383
8717,,0.015125505455100274
8718,,0.009784847791256546
8719,,0.0065804531929503085
8720,,0.0095559624628061
8721,,0.011844815747310555
8722,,0.013981078812848047
8723,,0.010547798886091364
8724,,0.020542458228427485
8725,,0.0074959945067520906
8726,,0.007801174944686019
8727,,0.004825665674830226
8728,,0.017338063630121248
8729,,0.020466163118944003
8730,,0.012760357061112337
8731,,0.0032234683756771076
8732,,-0.004863813229571967
8733,,0.010700389105058328
8734,,0.01283665217059582
8735,,0.01863508049134044
8736,,0.01573586633096813
8737,,0.008869306477454764
8738,,0.0022316319523918438
8739,,-0.0023460746166170665
8740,,0.006504158083466827
8741,,0.01619363698786902
8742,,0.02115281910429534
8743,,0.012607766842145374
8744,,0.01077668421454181
8745,,0.00581750209811549
8746,,0.013523308155947156
8747,,0.019321736476691775
8748,,0.02580682078278773
8749,,0.029697871366445305
8750,,0.027637903410391296
8751,,0.02618829633020514
8752,,0.024662394140535504
8753,,0.03091859311818101
8754,,0.031071183337147982
8755,,0.040226596475166174
8756,,0.03938735027084787
8757,,0.03740367742427697
8758,,0.03915846494239742
8759,,0.04198138399328625
8760,,0.04663538567177864
8761,,0.04991607537956837
8762,,0.05106050202182059
8763,,0.041828793774319285
8764,,0.028782330052643523
8765,,0.015888456549935093
8766,,0.02443350881208506
8767,,0.028782330052643523
8768,,0.030003051804379233
8769,,0.02824826428625915
8770,,0.027561608300907814
8771,,0.011768520637827073
8772,,-0.009746700236514805
8773,,-0.01409552147707327
8774,,-0.03004119935912116
8775,,-0.04041733424887469
8776,,-0.05354009308003356
8777,,-0.04873350118257421
8778,,-0.0411802853437095
8779,,-0.04407949950408182
8780,,-0.048504615854123766
8781,,-0.06452658884565514
8782,,-0.07131685358968501
8783,,-0.0730716411078051
8784,,-0.07505531395437563
8785,,-0.06559472037842387
8786,,-0.06986724650949887
8787,,-0.07085908293278413
8788,,-0.06246662088960112
8789,,-0.0483520256351568
8790,,-0.03812848096437023
8791,,-0.026455329213397515
8792,,-0.018368047608148252
8793,,-0.0006675822079804661
8794,,0.00497825589379719
8795,,0.01283665217059582
8796,,0.012607766842145374
8797,,0.02237354085603105
8798,,0.028553444724193078
8799,,0.03664072632944215
8800,,0.04285877775234629
8801,,0.0558289463645382
8802,,0.060101472495613185
8803,,0.05025940337224403
8804,,0.04583428702220208
8805,,0.043926909285115036
8806,,0.05315861753261634
8807,,0.05720225833524088
8808,,0.058041504539559176
8809,,0.05315861753261634
8810,,0.0424010070954454
8811,,0.026913099870298218
8812,,0.013485160601205415
8813,,0.023479819943541536
8814,,0.023556115053025017
8815,,0.030880445563439277
8816,,0.023556115053025017
8817,,0.016002899214160315
8818,,0.007763027389944278
8819,,-0.0006294346532387252
8820,,0.004787518120088485
8821,,0.00623712520027464
8822,,0.011425192645151405
8823,,0.005321583886472858
8824,,0.004177157244220631
8825,,-0.0017738612954909527
8826,,-0.00040054932478827965
8827,,-1.907377737087046e-05
8828,,0.0037956816968032214
8829,,0.003109025711451885
8830,,-0.004825665674830226
8831,,-0.0009346150911726525
8832,,0.002040894178683139
8833,,0.004787518120088485
8834,,0.0028038452735179575
8835,,0.008144502937361686
8836,,0.0012779430838483208
8837,,-0.0012397955291065799
8838,,-0.008564126039520836
8839,,-0.008182650492103427
8840,,0.006542305638208568
8841,,0.008220798046845168
8842,,0.013332570382238451
8843,,0.002040894178683139
8844,,-0.004062714579995408
8845,,-0.0087167162584878
8846,,0.0015831235217822481
8847,,0.008831158922713023
8848,,0.014629587243457642
8849,,0.00997558556496525
8850,,-0.0010109102006561344
8851,,-0.004367895017929335
8852,,-0.0042153047989623715
8853,,0.008373388265812132
8854,,0.009746700236514805
8855,,0.013561455710688897
8856,,0.008907454032196505
8857,,0.004100862134737149
8858,,-9.53688868543523e-05
8859,,0.0005149919890135024
8860,,0.009899290455481768
8861,,0.012722209506370596
8862,,0.011730373083085333
8863,,0.004940108339055449
8864,,0.00043869687953002057
8865,,-0.003147173266193626
8866,,0.005321583886472858
8867,,0.006847486076142495
8868,,0.008144502937361686
8869,,0.007686732280460796
8870,,0.002651255054550994
8871,,-0.002613107499809253
8872,,-0.00017166399633783413
8873,,0.015163653009842015
8874,,0.010891126878767032
8875,,0.0027275501640344757
8876,,-0.010700389105058328
8877,,-0.006809338521400754
8878,,-0.0019264515144579164
8879,,-9.53688868543523e-05
8880,,0.011348897535667923
8881,,0.007686732280460796
8882,,0.010280766002899178
8883,,0.0028801403830014394
8884,,0.0009727626459143934
8885,,-0.011387045090409664
8886,,-0.0029182879377431803
8887,,0.006160830090791158
8888,,0.006313420309758122
8889,,0.007839322499427759
8890,,0.007686732280460796
8891,,0.005321583886472858
8892,,-0.0070382238498511995
8893,,0.005092698558022413
8894,,0.009670405127031323
8895,,0.014171816586556751
8896,,0.002956435492484921
8897,,0.00013351644159609322
8898,,-0.0008583199816891707
8899,,0.0005912870984969842
8900,,0.010547798886091364
8901,,0.018177309834439548
8902,,0.020008392462043112
8903,,0.0019264515144579164
8904,,-0.00020981155107957505
8905,,-5.722133211261138e-05
8906,,0.00497825589379719
8907,,0.013828488593881083
8908,,0.01497291523613331
8909,,0.011387045090409664
8910,,0.00017166399633783413
8911,,0.0026894026092927348
8912,,0.0038338292515449623
8913,,0.011539635309376628
8914,,0.012760357061112337
8915,,0.01497291523613331
8916,,0.007267109178301645
8917,,0.0027656977187762166
8918,,-0.0014305333028152845
8919,,0.0014686808575570254
8920,,0.010852979324025291
8921,,0.015201800564583756
8922,,0.017566948958571693
8923,,0.010090028229190473
8924,,0.0070382238498511995
8925,,0.004367895017929335
8926,,0.003147173266193626
8927,,0.0033760585946440713
8928,,0.01741435873960473
8929,,0.017948424505989102
8930,,0.0078774700541695
8931,,0.005054551003280672
8932,,0.0003242542153047978
8933,,0.01161593041886011
8934,,0.01283665217059582
8935,,0.013065537499046265
8936,,0.0087167162584878
8937,,0.0070382238498511995
8938,,0.005130846112764154
8939,,0.0046730754558632626
8940,,0.010852979324025291
8941,,0.01413366903181501
8942,,0.017338063630121248
8943,,0.0026894026092927348
8944,,0.001163500419623098
8945,,-0.006847486076142495
8946,,0.004367895017929335
8947,,0.010929274433508773
8948,,0.010013733119706991
8949,,0.014591439688715901
8950,,0.007343404287785127
8951,,0.0024605172808422893
8952,,-0.0018883039597161755
8953,,0.003070878156710144
8954,,0.0029182879377431803
8955,,0.01451514457923242
8956,,0.008411535820553873
8957,,0.007190814068818163
8958,,0.005283436331731117
8959,,-0.002651255054550994
8960,,0.0023079270618753256
8961,,0.010013733119706991
8962,,0.02153429465171275
8963,,0.00993743801022351
8964,,0.0042153047989623715
8965,,0.0007820248722056888
8966,,0.009327077134355655
8967,,0.0095559624628061
8968,,0.016041046768902056
8969,,0.008640421149004318
8970,,0.0046730754558632626
8971,,0.0056649118791485265
8972,,1.907377737087046e-05
8973,,0.006427862973983345
8974,,0.009479667353322618
8975,,0.015583276112001165
8976,,0.006733043411917272
8977,,-0.00013351644159609322
8978,,-0.0018120088502326936
8979,,-0.001125352864881357
8980,,0.01451514457923242
8981,,0.011844815747310555
8982,,0.0070382238498511995
8983,,-0.003032730601968403
8984,,-0.0018883039597161755
8985,,-0.006847486076142495
8986,,0.0013923857480735435
8987,,0.013447013046463674
8988,,0.013904783703364565
8989,,0.010700389105058328
8990,,-0.00020981155107957505
8991,,-0.0047112230106050035
8992,,-0.004482337682154558
8993,,0.007343404287785127
8994,,0.011844815747310555
8995,,0.005893797207598972
8996,,0.0014686808575570254
8997,,-0.0015068284122987663
8998,,0.0010872053101396162
8999,,0.0014686808575570254
9000,,0.007839322499427759
9001,,0.01287479972533756
9002,,0.01165407797360185
9003,,-0.0112344548714427
9004,,-0.007648584725719055
9005,,-0.005893797207598972
9006,,0.00036240177004653873
9007,,0.005321583886472858
9008,,0.008678568703746059
9009,,0.008602273594262577
9010,,0.0037193865873197396
9011,,-0.0027656977187762166
9012,,-0.009021896696421727
9013,,0.00020981155107957505
9014,,0.0032616159304188486
9015,,0.006466010528725086
9016,,0.0034142061493858122
9017,,-0.0013160906385900617
9018,,-0.00207904173342488
9019,,-0.00207904173342488
9020,,0.005474174105439822
9021,,0.010204470893415696
9022,,0.011577782864118369
9023,,0.0028801403830014394
9024,,-0.0028419928282596985
9025,,-0.003528648813611035
9026,,0.0056267643244067855
9027,,0.012569619287403633
9028,,0.014019226367589788
9029,,0.009212634470130432
9030,,0.007381551842526868
9031,,0.006694895857175531
9032,,0.0031853208209353667
9033,,0.009670405127031323
9034,,0.010967421988250514
9035,,0.02203021286335538
9036,,0.012798504615854078
9037,,0.01081483176928355
9038,,0.013408865491721933
9039,,0.007686732280460796
9040,,0.013561455710688897
9041,,0.016689555199511652
9042,,0.024700541695277245
9043,,0.011501487754634887
9044,,0.009365224689097396
9045,,0.002117189288166621
9046,,0.01287479972533756
9047,,0.014171816586556751
9048,,0.01867322804608218
9049,,0.01867322804608218
9050,,0.01119630731670096
9051,,0.005703059433890267
9052,,0.0014305333028152845
9053,,0.009899290455481768
9054,,0.013332570382238451
9055,,0.017681391622796916
9056,,0.009746700236514805
9057,,0.0047112230106050035
9058,,0.0022697795071335847
9059,,0.0005149919890135024
9060,,0.008525978484779095
9061,,0.016002899214160315
9062,,0.017681391622796916
9063,,0.006847486076142495
9064,,0.006160830090791158
9065,,0.0034142061493858122
9066,,0.005855649652857231
9067,,0.008678568703746059
9068,,0.014782177462424606
9069,,0.011348897535667923
9070,,0.004940108339055449
9071,,0.007305256733043386
9072,,0.006923781185625977
9073,,0.012951094834821042
9074,,0.007763027389944278
9075,,0.014782177462424606
9076,,0.008602273594262577
9077,,0.0023460746166170665
9078,,0.004177157244220631
9079,,0.002574959945067512
9080,,0.010051880674448732
9081,,0.01119630731670096
9082,,0.017299916075379507
9083,,0.010662241550316587
9084,,-0.0009346150911726525
9085,,-0.006885633630884236
9086,,5.722133211261138e-05
9087,,0.012951094834821042
9088,,0.01165407797360185
9089,,0.012722209506370596
9090,,0.0013542381933318026
9091,,-0.0009346150911726525
9092,,0.0005912870984969842
9093,,0.012722209506370596
9094,,0.006847486076142495
9095,,0.012264438849469705
9096,,0.005779354543373749
9097,,0.00165941863126573
9098,,0.0002861066605630569
9099,,0.003566796368352776
9100,,0.005970092317082454
9101,,0.014667734798199383
9102,,0.015888456549935093
9103,,0.00665674830243379
9104,,0.0036812390325779987
9105,,-0.004177157244220631
9106,,0.008640421149004318
9107,,0.013370717936980192
9108,,0.012989242389562783
9109,,0.010547798886091364
9110,,0.010318913557640919
9111,,-0.0002861066605630569
9112,,-0.0012779430838483208
9113,,0.012760357061112337
9114,,0.016727702754253393
9115,,0.014438849469748938
9116,,0.00833524071107039
9117,,0.005436026550698081
9118,,0.001621271076523989
9119,,0.0012397955291065799
9120,,0.01077668421454181
9121,,0.017566948958571693
9122,,0.016117341878385538
9123,,0.005893797207598972
9124,,0.002155336842908362
9125,,-0.002574959945067512
9126,,0.003910124361028444
9127,,0.011997405966277519
9128,,0.01367589837491412
9129,,0.010624093995574846
9130,,0.006046387426565936
9131,,0.001621271076523989
9132,,-0.0042534523537041125
9133,,0.005970092317082454
9134,,0.003604943923094517
9135,,0.014438849469748938
9136,,0.009403372243839137
9137,,0.007724879835202537
9138,,-0.0008201724269474298
9139,,0.00017166399633783413
9140,,0.006351567864499863
9141,,0.008487830930037354
9142,,0.013141832608529747
9143,,0.0027656977187762166
9144,,0.004749370565346744
9145,,0.0018501564049744346
9146,,0.0087167162584878
9147,,0.008640421149004318
9148,,0.011768520637827073
9149,,0.011463340199893146
9150,,0.002536812390325771
9151,,0.0013923857480735435
9152,,0.00024795910582131597
9153,,0.011921110856794037
9154,,0.011387045090409664
9155,,0.01825360494392303
9156,,0.005741206988632008
9157,,0.0026894026092927348
9158,,-0.003566796368352776
9159,,-0.00043869687953002057
9160,,0.010090028229190473
9161,,0.01871137560082392
9162,,0.01985580224307615
9163,,0.003147173266193626
9164,,-0.00020981155107957505
9165,,-0.0060845349813076766
9166,,0.004901960784313708
9167,,0.009021896696421727
9168,,0.012912947280079301
9169,,0.012302586404211446
9170,,0.010547798886091364
9171,,0.003452353704127553
9172,,-0.0023460746166170665
9173,,0.008106355382619945
9174,,0.008640421149004318
9175,,0.010166323338673955
9176,,0.005359731441214599
9177,,0.00024795910582131597
9178,,-0.0008964675364309116
9179,,0.0027656977187762166
9180,,0.008182650492103427
9181,,0.00993743801022351
9182,,0.008564126039520836
9183,,0.005741206988632008
9184,,0.002155336842908362
9185,,-0.0014305333028152845
9186,,0.0032234683756771076
9187,,0.007648584725719055
9188,,0.008640421149004318
9189,,0.0065804531929503085
9190,,1.907377737087046e-05
9191,,0.0018501564049744346
9192,,0.0022316319523918438
9193,,0.01283665217059582
9194,,0.015049210345616792
9195,,0.01657511253528643
9196,,0.008945601586938245
9197,,0.0028419928282596985
9198,,0.0036812390325779987
9199,,0.004520485236896299
9200,,0.0078774700541695
9201,,0.014667734798199383
9202,,0.018940260929274366
9203,,0.0078774700541695
9204,,0.00413900968947889
9205,,0.003986419470511926
9206,,0.0087167162584878
9207,,0.00909819180590521
9208,,0.011768520637827073
9209,,0.012378881513694928
9210,,0.009327077134355655
9211,,-0.0005912870984969842
9212,,-0.002117189288166621
9213,,0.013523308155947156
9214,,0.0103952086671244
9215,,0.014057373922331529
9216,,0.0026894026092927348
9217,,0.0014686808575570254
9218,,-0.0007438773174639479
9219,,0.003986419470511926
9220,,0.009174486915388691
9221,,0.01413366903181501
9222,,0.01832990005340651
9223,,0.006733043411917272
9224,,0.002994583047226662
9225,,-0.008831158922713023
9226,,0.002536812390325771
9227,,0.015430685893034202
9228,,0.01825360494392303
9229,,0.012607766842145374
9230,,0.004062714579995408
9231,,-0.0006675822079804661
9232,,-0.0018883039597161755
9233,,0.0095559624628061
9234,,0.013447013046463674
9235,,0.016346227206835984
9236,,0.007190814068818163
9237,,0.003910124361028444
9238,,-0.0012779430838483208
9239,,0.00413900968947889
9240,,0.010852979324025291
9241,,0.012073701075761
9242,,0.014209964141298492
9243,,0.0032997634851605895
9244,,0.0032234683756771076
9245,,-0.004329747463187594
9246,,0.006351567864499863
9247,,0.015049210345616792
9248,,0.012760357061112337
9249,,0.009861142900740028
9250,,0.0023842221713588074
9251,,0.003070878156710144
9252,,0.006427862973983345
9253,,0.0032997634851605895
9254,,0.004825665674830226
9255,,0.013523308155947156
9256,,0.011081864652475737
9257,,0.005588616769665045
9258,,-0.004634927901121522
9259,,-0.0032616159304188486
9260,,0.010166323338673955
9261,,0.014438849469748938
9262,,0.016269932097352502
9263,,0.0016975661860074709
9264,,0.004367895017929335
9265,,-0.0037956816968032214
9266,,0.0038338292515449623
9267,,0.009479667353322618
9268,,0.00993743801022351
9269,,0.013141832608529747
9270,,0.0028419928282596985
9271,,0.00040054932478827965
9272,,-0.0007438773174639479
9273,,0.012073701075761
9274,,0.013904783703364565
9275,,0.01832990005340651
9276,,0.004520485236896299
9277,,-0.002193484397650103
9278,,-0.0037193865873197396
9279,,0.0042153047989623715
9280,,0.006351567864499863
9281,,0.015201800564583756
9282,,0.02031357289997704
9283,,0.015049210345616792
9284,,0.0013923857480735435
9285,,-0.007610437170977313
9286,,0.0026894026092927348
9287,,0.0070382238498511995
9288,,0.01329442282749671
9289,,0.014820325017166347
9290,,0.00993743801022351
9291,,0.006885633630884236
9292,,0.003910124361028444
9293,,0.011387045090409664
9294,,0.009250782024872173
9295,,0.011081864652475737
9296,,0.005893797207598972
9297,,0.005512321660181563
9298,,0.004520485236896299
9299,,0.009327077134355655
9300,,0.015697718776226388
9301,,0.021038376440070117
9302,,0.011501487754634887
9303,,-0.00024795910582131597
9304,,0.003490501258869294
9305,,0.0032616159304188486
9306,,0.005321583886472858
9307,,0.011272602426184442
9308,,0.015850308995193352
9309,,0.012493324177920151
9310,,0.004634927901121522
9311,,0.0037193865873197396
9312,,-0.00024795910582131597
9313,,0.0051689936675058945
9314,,0.009441519798580877
9315,,0.011272602426184442
9316,,0.005703059433890267
9317,,0.0006675822079804661
9318,,-0.004444190127412817
9319,,0.0006675822079804661
9320,,0.007991912718394723
9321,,0.013179980163271487
9322,,0.009746700236514805
9323,,-0.0004768444342717615
9324,,0.00036240177004653873
9325,,-0.0070382238498511995
9326,,0.006466010528725086
9327,,0.009670405127031323
9328,,0.01035706111238266
9329,,0.0018120088502326936
9330,,0.0028038452735179575
9331,,-0.0003242542153047978
9332,,0.0014305333028152845
9333,,0.008602273594262577
9334,,0.00951781490806436
9335,,0.014019226367589788
9336,,0.0028038452735179575
9337,,-0.0003242542153047978
9338,,0.0005149919890135024
9339,,0.003490501258869294
9340,,0.011425192645151405
9341,,0.01737621118486299
9342,,0.01707103074692906
9343,,0.0014305333028152845
9344,,0.00020981155107957505
9345,,0.0012779430838483208
9346,,0.00951781490806436
9347,,0.012111848630502742
9348,,0.014400701915007197
9349,,0.011348897535667923
9350,,0.004787518120088485
9351,,0.0015831235217822481
9352,,0.0060845349813076766
9353,,0.016384374761577725
9354,,0.01699473563744558
9355,,0.01745250629434647
9356,,0.0056267643244067855
9357,,-0.004596780346379781
9358,,-0.0015449759670405072
9359,,0.008068207827878204
9360,,0.012645914396887115
9361,,0.017605096513313434
9362,,0.01653696498054469
9363,,0.007610437170977313
9364,,0.005245288776989376
9365,,-0.0029182879377431803
9366,,0.0013542381933318026
9367,,0.012340733958953187
9368,,0.01699473563744558
9369,,0.006389715419241604
9370,,-0.0032997634851605895
9371,,0.006847486076142495
9372,,0.010891126878767032
9373,,0.0070763714045929405
9374,,0.006618600747692049
9375,,0.009822995345998287
9376,,0.002117189288166621
9377,,0.006313420309758122
9378,,0.004863813229571967
9379,,0.005550469214923304
9380,,0.011043717097733996
9381,,0.013408865491721933
9382,,0.011806668192568814
9383,,0.002040894178683139
9384,,0.0017357137407492118
9385,,-0.0024605172808422893
9386,,0.010204470893415696
9387,,0.01707103074692906
9388,,0.017757686732280398
9389,,0.011806668192568814
9390,,5.722133211261138e-05
9391,,0.00036240177004653873
9392,,-0.0023842221713588074
9393,,0.010509651331349623
9394,,0.016308079652094243
9395,,0.018825818265049143
9396,,0.009060044251163468
9397,,-0.001163500419623098
9398,,-0.0005531395437552433
9399,,-0.000705729762722207
9400,,0.011882963302052296
9401,,0.014858472571908088
9402,,0.014782177462424606
9403,,0.004024567025253667
9404,,0.0028038452735179575
9405,,0.003948271915770185
9406,,0.012569619287403633
9407,,0.00020981155107957505
9408,,0.007381551842526868
9409,,0.015392538338292459
9410,,0.014171816586556751
9411,,0.0031853208209353667
9412,,-0.0038338292515449623
9413,,0.005703059433890267
9414,,0.013866636148622824
9415,,0.020656900892652708
9416,,0.0051689936675058945
9417,,0.005779354543373749
9418,,0.0038719768062867033
9419,,-9.53688868543523e-05
9420,,0.009060044251163468
9421,,0.01623178454261076
9422,,0.017147325856412543
9423,,0.006618600747692049
9424,,-0.0010872053101396162
9425,,-1.907377737087046e-05
9426,,0.012340733958953187
9427,,0.014476997024490679
9428,,0.01661326009002817
9429,,0.004787518120088485
9430,,0.00020981155107957505
9431,,0.0036430914778362578
9432,,0.006008239871824195
9433,,0.016308079652094243
9434,,0.019436179140916998
9435,,0.01791027695124736
9436,,0.010585946440833105
9437,,0.011577782864118369
9438,,0.011882963302052296
9439,,0.015392538338292459
9440,,0.02370870527199198
9441,,0.030804150453955792
9442,,0.034618905928129884
9443,,0.035534447241931666
9444,,0.03416113527122899
9445,,0.02203021286335538
9446,,0.031795986877241056
9447,,0.0411802853437097
9448,,0.0449187457084003
9449,,0.053845273517967675
9450,,0.042629892423895845
9451,,0.035458152132448184
9452,,0.03965438315404005
9453,,0.05621042191195561
9454,,0.04819943541619002
9455,,0.0424010070954454
9456,,0.03484779125658033
9457,,0.0244716563668268
9458,,0.016918440527962098
9459,,0.02737087052719911
9460,,0.03294041351949328
9461,,0.035458152132448184
9462,,0.020122835126268335
9463,,-0.005436026550698081
9464,,-0.01535439078355072
9465,,-0.03992141603723206
9466,,-0.062199588006408936
9467,,-0.062275883115892425
9468,,-0.04655909056229497
9469,,-0.03992141603723206
9470,,-0.04633020523384453
9471,,-0.0565537499046311
9472,,-0.07829785610742361
9473,,-0.07982375829709325
9474,,-0.07036316472114149
9475,,-0.07928969253070886
9476,,-0.0817311360341803
9477,,-0.11247806515602347
9478,,-0.09279392690928516
9479,,-0.0757801174944687
9480,,-0.058308537422751175
9481,,-0.03480964370183877
9482,,-0.01787212939650562
9483,,-0.023594262607766946
9484,,-0.01451514457923242
9485,,-0.008487830930037354
9486,,0.0012779430838483208
9487,,0.008449683375295614
9488,,0.01997024490730137
9489,,0.024166475928892872
9490,,0.030498970016021865
9491,,0.040951400015259244
9492,,0.05178530556191367
9493,,0.06544213015945692
9494,,0.06795986877241182
9495,,0.06750209811551092
9496,,0.061398489356832384
9497,,0.05949111161974533
9498,,0.057965209430075694
9499,,0.05193789578088063
9500,,0.05182345311665541
9501,,0.046787975890745605
9502,,0.043507286182955886
9503,,0.029774166475928787
9504,,0.02122911421377882
9505,,0.028782330052643523
9506,,0.041828793774319285
9507,,0.016117341878385538
9508,,0.01245517662317841
9509,,0.02328908216983283
9510,,0.013828488593881083
9511,,0.008869306477454764
9512,,0.003910124361028444
9513,,0.0078774700541695
9514,,0.007572289616235572
9515,,0.010471503776607882
9516,,0.004291599908445853
9517,,-0.0012779430838483208
9518,,-0.0006675822079804661
9519,,0.004596780346379781
9520,,0.0078774700541695
9521,,0.009632257572289582
9522,,0.010471503776607882
9523,,0.0036812390325779987
9524,,0.004444190127412817
9525,,0.0003242542153047978
9526,,-0.0015068284122987663
9527,,-0.005703059433890267
9528,,0.018558785381856957
9529,,0.020008392462043112
9530,,0.003070878156710144
9531,,9.53688868543523e-05
9532,,0.004825665674830226
9533,,0.012989242389562783
9534,,0.004596780346379781
9535,,0.0087167162584878
9536,,0.0070382238498511995
9537,,0.005207141222247635
9538,,0.004901960784313708
9539,,0.004062714579995408
9540,,0.013828488593881083
9541,,0.009250782024872173
9542,,0.008945601586938245
9543,,-0.004634927901121522
9544,,0.00581750209811549
9545,,0.003910124361028444
9546,,0.0103952086671244
9547,,0.01367589837491412
9548,,0.011997405966277519
9549,,-5.722133211261138e-05
9550,,0.00024795910582131597
9551,,0.006427862973983345
9552,,0.0032234683756771076
9553,,0.003452353704127553
9554,,0.009784847791256546
9555,,0.008945601586938245
9556,,0.008030060273136463
9557,,0.0078774700541695
9558,,0.002994583047226662
9559,,-0.0036430914778362578
9560,,0.00413900968947889
9561,,0.003910124361028444
9562,,0.011921110856794037
9563,,0.003528648813611035
9564,,0.00024795910582131597
9565,,0.0017738612954909527
9566,,0.007190814068818163
9567,,0.00581750209811549
9568,,0.007801174944686019
9569,,0.0015449759670405072
9570,,0.005970092317082454
9571,,0.001163500419623098
9572,,-0.0037956816968032214
9573,,0.009861142900740028
9574,,0.006275272755016381
9575,,0.0074959945067520906
9576,,0.00017166399633783413
9577,,0.008487830930037354
9578,,0.008945601586938245
9579,,0.004596780346379781
9580,,0.0019264515144579164
9581,,0.008640421149004318
9582,,0.00581750209811549
9583,,0.003604943923094517
9584,,0.006198977645532899
9585,,0.0013160906385900617
9586,,0.009403372243839137
9587,,0.009021896696421727
9588,,0.011463340199893146
9589,,0.015201800564583756
9590,,0.0015449759670405072
9591,,-0.0042534523537041125
9592,,-0.002574959945067512
9593,,0.00497825589379719
9594,,0.013828488593881083
9595,,0.024357213702601577
9596,,0.01581216144045161
9597,,-0.002574959945067512
9598,,-0.005931944762340713
9599,,-0.0012779430838483208
9600,,0.013828488593881083
9601,,0.015201800564583756
9602,,0.01245517662317841
9603,,0.004062714579995408
9604,,0.005359731441214599
9605,,0.0042153047989623715
9606,,0.008182650492103427
9607,,0.010318913557640919
9608,,0.013752193484397601
9609,,0.016498817425802947
9610,,-0.0037956816968032214
9611,,0.0019264515144579164
9612,,0.0074959945067520906
9613,,0.012149996185244483
9614,,0.012531471732661892
9615,,0.01245517662317841
9616,,0.004596780346379781
9617,,-0.00013351644159609322
9618,,0.003986419470511926
9619,,0.0056649118791485265
9620,,0.016498817425802947
9621,,0.02244983596551453
9622,,0.007190814068818163
9623,,0.0014686808575570254
9624,,0.0070382238498511995
9625,,0.005359731441214599
9626,,0.0046730754558632626
9627,,0.008793011367971282
9628,,0.014438849469748938
9629,,0.01619363698786902
9630,,0.006504158083466827
9631,,-0.00043869687953002057
9632,,0.0023079270618753256
9633,,0.0095559624628061
9634,,0.01573586633096813
9635,,0.015125505455100274
9636,,0.008869306477454764
9637,,0.008564126039520836
9638,,0.0015449759670405072
9639,,0.00024795910582131597
9640,,0.010929274433508773
9641,,0.01581216144045161
9642,,0.012989242389562783
9643,,0.0018501564049744346
9644,,0.0015449759670405072
9645,,0.004749370565346744
9646,,0.01657511253528643
9647,,0.010852979324025291
9648,,0.010090028229190473
9649,,0.007648584725719055
9650,,0.00413900968947889
9651,,0.0015449759670405072
9652,,0.0026894026092927348
9653,,0.010471503776607882
9654,,0.011768520637827073
9655,,0.01283665217059582
9656,,0.005054551003280672
9657,,0.0013923857480735435
9658,,-0.002117189288166621
9659,,-0.001201647974364839
9660,,0.010852979324025291
9661,,0.016269932097352502
9662,,0.014438849469748938
9663,,0.0036812390325779987
9664,,-0.004406042572671076
9665,,-0.005092698558022413
9666,,0.006427862973983345
9667,,0.011081864652475737
9668,,0.008182650492103427
9669,,0.00207904173342488
9670,,0.005588616769665045
9671,,-0.003490501258869294
9672,,0.005741206988632008
9673,,0.010929274433508773
9674,,0.008564126039520836
9675,,0.01329442282749671
9676,,0.00207904173342488
9677,,-0.002574959945067512
9678,,-0.0012779430838483208
9679,,-0.0005912870984969842
9680,,0.005970092317082454
9681,,0.015430685893034202
9682,,0.015201800564583756
9683,,0.005970092317082454
9684,,0.0008583199816891707
9685,,-0.009899290455481768
9686,,-0.0007438773174639479
9687,,0.009250782024872173
9688,,0.011997405966277519
9689,,0.007953765163652982
9690,,-0.002193484397650103
9691,,-0.005855649652857231
9692,,-0.001125352864881357
9693,,0.003986419470511926
9694,,0.0038338292515449623
9695,,0.0022316319523918438
9696,,-0.002117189288166621
9697,,-0.0019645990691996573
9698,,-0.003948271915770185
9699,,-0.0013542381933318026
9700,,0.0027275501640344757
9701,,0.0015068284122987663
9702,,-0.0008583199816891707
9703,,-0.003986419470511926
9704,,-0.00207904173342488
9705,,-0.0004768444342717615
9706,,0.0008964675364309116
9707,,0.003566796368352776
9708,,0.0031853208209353667
9709,,0.006618600747692049
9710,,0.007381551842526868
9711,,-0.008106355382619945
9712,,-0.00017166399633783413
9713,,0.013637750820172378
9714,,0.012111848630502742
9715,,0.012340733958953187
9716,,0.005703059433890267
9717,,0.008602273594262577
9718,,0.0047112230106050035
9719,,0.005016403448538931
9720,,0.014705882352941124
9721,,0.019588769359883962
9722,,0.014019226367589788
9723,,5.722133211261138e-05
9724,,0.0027275501640344757
9725,,0.007686732280460796
9726,,0.018902113374532625
9727,,0.011501487754634887
9728,,0.018902113374532625
9729,,0.012798504615854078
9730,,0.008373388265812132
9731,,0.0038719768062867033
9732,,0.004634927901121522
9733,,0.00745784695201035
9734,,0.015926604104676834
9735,,0.016765850308995134
9736,,0.007305256733043386
9737,,0.011425192645151405
9738,,0.005550469214923304
9739,,0.0060845349813076766
9740,,0.01371404592965586
9741,,0.01699473563744558
9742,,0.015239948119325497
9743,,0.007000076295109459
9744,,0.007686732280460796
9745,,0.006160830090791158
9746,,0.011120012207217478
9747,,0.014248111696040233
9748,,0.014858472571908088
9749,,0.018368047608148252
9750,,0.012188143739986224
9751,,0.003032730601968403
9752,,5.722133211261138e-05
9753,,0.012340733958953187
9754,,0.017299916075379507
9755,,0.013942931258106306
9756,,0.006847486076142495
9757,,0.006771190966659013
9758,,0.007000076295109459
9759,,0.006847486076142495
9760,,0.013866636148622824
9761,,0.00913633936064695
9762,,0.0015068284122987663
9763,,0.002651255054550994
9764,,0.0036430914778362578
9765,,0.0031853208209353667
9766,,0.00997558556496525
9767,,0.007610437170977313
9768,,0.009899290455481768
9769,,0.007991912718394723
9770,,0.002651255054550994
9771,,-0.0029182879377431803
9772,,0.0015068284122987663
9773,,0.007839322499427759
9774,,0.01409552147707327
9775,,0.015316243228808977
9776,,0.0028801403830014394
9777,,-0.00413900968947889
9778,,0.0070763714045929405
9779,,0.0008201724269474298
9780,,0.006694895857175531
9781,,0.014400701915007197
9782,,0.013637750820172378
9783,,0.0075341420614938315
9784,,0.0018883039597161755
9785,,0.004940108339055449
9786,,0.005855649652857231
9787,,0.007305256733043386
9788,,0.008602273594262577
9789,,0.007839322499427759
9790,,0.005703059433890267
9791,,0.005245288776989376
9792,,0.005931944762340713
9793,,0.010662241550316587
9794,,0.015011062790875052
9795,,0.014171816586556751
9796,,0.0033379110399023304
9797,,0.0015831235217822481
9798,,0.00013351644159609322
9799,,0.005550469214923304
9800,,0.01329442282749671
9801,,0.013904783703364565
9802,,0.013523308155947156
9803,,0.011539635309376628
9804,,0.003986419470511926
9805,,0.0037575341420614805
9806,,0.01573586633096813
9807,,0.011005569542992255
9808,,-0.002651255054550994
9809,,0.004367895017929335
9810,,0.012302586404211446
9811,,0.008640421149004318
9812,,0.006351567864499863
9813,,0.0023842221713588074
9814,,0.014286259250781974
9815,,0.010700389105058328
9816,,0.008411535820553873
9817,,0.0032997634851605895
9818,,0.004596780346379781
9819,,-0.002040894178683139
9820,,0.0032997634851605895
9821,,0.0112344548714427
9822,,0.010242618448157437
9823,,0.003604943923094517
9824,,0.0042153047989623715
9825,,0.0013923857480735435
9826,,0.006046387426565936
9827,,0.013904783703364565
9828,,0.010852979324025291
9829,,0.008487830930037354
9830,,-0.001125352864881357
9831,,-0.0015831235217822481
9832,,0.0003242542153047978
9833,,0.007648584725719055
9834,,0.013370717936980192
9835,,0.019016556038757848
9836,,0.0026894026092927348
9837,,-0.0005912870984969842
9838,,0.0013160906385900617
9839,,0.002994583047226662
9840,,0.008487830930037354
9841,,0.014667734798199383
9842,,0.014591439688715901
9843,,0.005207141222247635
9844,,-0.0042534523537041125
9845,,-0.0005149919890135024
9846,,0.006809338521400754
9847,,0.009632257572289582
9848,,0.012226291294727964
