index,raw,preprocessed,cleaned,artifact,rpeak
0,0.00497825589379719,0.0004938055647633691,0.0002697969154293405,0.00022400864933402864,0
1,0.0087167162584878,0.0033672518113071867,0.0032103023071487343,0.00015694950415845238,0
2,0.003147173266193626,-0.00012955816625725164,-0.00042316037337996844,0.0002936022071227168,0
3,-0.0015068284122987663,-0.0029785228495346895,-0.0031044607895395013,0.00012593794000481185,0
4,-0.002040894178683139,-0.0030561288155158553,-0.0033114529810182826,0.0002553241655024272,0
5,0.00017166399633783413,-0.0013302367272691902,-0.0017170631388935481,0.0003868264116243579,0
6,0.0027656977187762166,0.0006130830136327421,0.00036557737761506884,0.0002475056360176733,0
7,0.003528648813611035,0.001303724640940016,0.0014898577996538811,-0.00018613315871386519,0
8,-0.0006675822079804661,-0.0014247082235422268,-0.0009785519781895244,-0.0004461562453527024,0
9,-0.0006675822079804661,-0.0012725769124018573,-0.0011794171698076247,-9.315974259423263e-05,0
10,-0.0031853208209353667,-0.0029445829654785828,-0.0029491296197164812,4.546654237898469e-06,0
11,0.0010109102006561344,-4.209171027052407e-05,-0.0002397168500711734,0.00019762513980064932,0
12,0.005207141222247635,0.0028489358532308917,0.002783013361588922,6.59224916419697e-05,0
13,0.0037575341420614805,0.001891312565681628,0.0016222725710130156,0.00026903999466861245,0
14,0.004062714579995408,0.002231128915670602,0.002176383944807517,5.474497086308504e-05,0
15,0.002613107499809253,0.0014195566479775542,0.0011439672024464583,0.00027558944553109587,0
16,-0.002040894178683139,-0.0015969800279708258,-0.0015072507015499634,-8.972932642086233e-05,0
17,-0.005321583886472858,-0.00373909582884829,-0.0035997821628027827,-0.00013931366604550723,0
18,-0.005321583886472858,-0.0037604221259479784,-0.0034054669609421134,-0.000354955165005865,0
19,-0.004863813229571967,-0.0036379308643413946,-0.002866145138679595,-0.0007717857256617994,0
20,0.0028419928282596985,0.0014008449925749032,0.002344419390226649,-0.0009435743976517459,0
21,0.005283436331731117,0.0028054846086407333,0.0031754062807162805,-0.0003699216720755472,0
22,0.0056649118791485265,0.002890538658113139,0.0031085236674912634,-0.00021798500937812455,0
23,0.002536812390325771,0.0006495393856160263,0.0005298004895780395,0.00011973889603798674,0
24,-0.0019645990691996573,-0.0025107888275068655,-0.0029214246254782193,0.00041063579797135383,0
25,-0.0007438773174639479,-0.0017470152873573167,-0.0023909256789286077,0.0006439103915712909,0
26,0.002536812390325771,0.00040819103453391037,0.0002730698024390188,0.00013512123209489157,0
27,0.0018501564049744346,-0.00017741448036907373,0.0005791021805505436,-0.0007565166609196173,0
28,0.0022316319523918438,2.957218933694339e-06,0.0008783725242046471,-0.0008754153052709528,0
29,0.0004768444342717615,-0.0012896807933300098,-0.00036811171797768833,-0.0009215690753523215,0
30,-0.0018883039597161755,-0.0030408900723528465,-0.002172352195231735,-0.0008685378771211114,0
31,0.0006294346532387252,-0.001473676480255151,-0.0017292446131762043,0.00025556813292105336,0
32,0.0013160906385900617,-0.0012277207155570998,-0.0014421157555246822,0.00021439503996758245,0
33,0.006961928740367718,0.002470769238803002,0.0025321737352992446,-6.14044964962427e-05,0
34,0.005893797207598972,0.0015976692991558716,0.001900831114032065,-0.00030316181487619336,0
35,0.0056649118791485265,0.001414834247852003,0.0016191183611001028,-0.0002042841132480998,0
36,0.0004768444342717615,-0.002148002587785503,-0.0022796739426291244,0.00013167135484362137,0
37,0.0033760585946440713,-9.126286081148911e-05,-0.00027781073280901293,0.00018654787199752382,0
38,0.004367895017929335,0.000669874117577248,0.00034614023765877584,0.0003237338799184721,0
39,0.005130846112764154,0.0013507238316785948,0.001756500939928047,-0.00040577710824945233,0
40,0.00497825589379719,0.0015051128948628664,0.0024286705233947455,-0.0009235576285318791,0
41,0.000705729762722207,-0.0011012363760511945,0.0007845842174902277,-0.0018858205935414222,0
42,0.0013923857480735435,-0.0002080904549419709,0.0014521167216507889,-0.0016602071765927599,0
43,0.001621271076523989,0.0004294072035663937,0.0013855600442634526,-0.0009561528406970589,0
44,0.0032997634851605895,0.0021798769890443827,0.0020796244027066835,0.0001002525863376992,0
45,0.0028419928282596985,0.002606077315661818,0.0018765913587568083,0.0007294859569050096,0
46,0.002613107499809253,0.0033843569083322374,0.0025443815104477497,0.0008399753978844877,0
47,0.001621271076523989,0.0038490399709778817,0.0026955502103500487,0.001153489760627833,0
48,-0.0023460746166170665,0.0024615791596969134,0.0013861218955275513,0.001075457264169362,0
49,-0.0015831235217822481,0.004555272590842259,0.003398317609506309,0.00115695498133595,0
50,-0.004177157244220631,0.004534965982180878,0.003803349904521574,0.0007316160776593035,0
51,-0.005779354543373749,0.0054317641439561755,0.005120577727889986,0.00031118641606618907,0
52,-0.008220798046845168,0.005979497132929115,0.005911561276823839,6.793585610527595e-05,0
53,-0.01791027695124736,0.0016844592649738481,0.0007286677714757945,0.0009557914934980536,0
54,-0.022030212863355565,0.0013252369316083873,6.970847541793151e-05,0.0012555284561904557,0
55,-0.027065690089265366,0.00031338296930306285,-0.0016112817341498175,0.0019246647034528803,0
56,-0.03133821622034035,-0.0002427005346225096,-0.0019286671993148676,0.001685966664692358,0
57,-0.033398184176394355,0.000625761855050392,-0.0007352695677263697,0.0013610314227767617,0
58,-0.03698405432211801,0.0003122378677072533,-0.0016986013788905436,0.002010839246597797,0
59,-0.0353055619134814,0.003543428081150325,0.001044024991365934,0.002499403089784391,0
60,-0.0353055619134814,0.005568401292366731,0.0025726682506670385,0.0029957330416996927,0
61,-0.036831464103151045,0.006558711934000837,-0.008894604187123954,0.01545331612112479,0
62,-0.04507133592736708,0.0028946579776243414,-0.005999730986575963,0.008894388964200304,0
63,-0.0613221942473489,-0.006516159854313174,-0.006620079074115346,0.00010391921980217218,0
64,-0.06979095140001537,-0.01102869606217257,-0.004798182511047038,-0.006230513551125532,0
65,-0.07001983672846583,-0.010538761378543317,-0.0013983571996731298,-0.009140404178870187,0
66,-0.06963836118104842,-0.010393999435478111,0.000495730192451211,-0.010889729627929322,0
67,-0.06605249103532478,-0.00878215912892479,0.0013123811365793655,-0.010094540265504156,0
68,-0.06475547417410558,-0.009492785094824326,-0.0007488394590897673,-0.008743945635734558,0
69,-0.05743114366369114,-0.0067260730388502415,-0.0008551084015500782,-0.005870964637300163,0
70,-0.04407949950408182,-0.00035988809700694143,0.003254083647249839,-0.0036139717442567804,0
71,-0.04026474402990773,-0.0010279714644766016,0.003424963309588258,-0.0044529347740648595,0
72,-0.04575799191271841,-0.008587939617325622,0.0038087175931451975,-0.01239665721047082,0
73,-0.043392843518730476,-0.011312038773898662,0.005598084756084856,-0.016910123529983518,0
74,-0.034390020599679626,-0.010152966198305372,0.01324662785866489,-0.02339959405697026,0
75,-0.0407988097962921,-0.020493742027224326,0.008253553049596019,-0.028747295076820344,0
76,-0.04041733424887469,-0.02716945859292147,0.0017706848392658008,-0.02894014343218727,0
77,-0.018825818265049143,-0.02030120547429175,0.0030728006043068967,-0.023374006078598648,0
78,0.009784847791256546,-0.009477694033499994,0.004006675153179328,-0.013484369186679323,0
79,0.03786144808117786,0.0005479197682544853,0.005781041987945436,-0.005233122219690951,0
80,0.07280460822461292,0.015480004960405224,0.01040341174178017,0.005076593218625055,0
81,0.09485389486533916,0.022186438343835286,0.013553598953457131,0.008632839390378155,0
82,0.08760585946440838,0.009529929802677228,0.004651744584419687,0.004878185218257541,0
83,0.08554589150835439,0.0012180800572347248,0.004935905074822743,-0.003717825017588018,0
84,0.08638513771267269,-0.00464922911326576,-0.0012168483251588959,-0.003432380788106864,0
85,0.09622720683604184,-0.003987266112854871,-0.002498271577799028,-0.001488994535055843,0
86,0.11995498588540487,0.006710032654066137,-0.002107260044203572,0.008817292698269709,0
87,0.14742122529945834,0.020835782857524746,0.0035480618228124552,0.01728772103471229,0
88,0.15398260471503777,0.021758358553054344,0.005790560314862126,0.015967798238192218,0
89,0.1455138475623713,0.013669695247093477,-0.0004350452048539899,0.014104740451947467,0
90,0.13925764858472578,0.008335457766954081,-0.0043626867991071044,0.012698144566061186,0
91,0.1353665980010682,0.005645252416327,-0.010602595867277721,0.016247848283604722,0
92,0.16840238040741584,0.029719110986545002,0.0021664403990801495,0.027552670587464852,0
93,0.1732089723048752,0.03588931809121369,0.007133255593512446,0.028756062497701247,0
94,0.16283283741512167,0.03354090594783707,0.010956461292659769,0.0225844446551773,0
95,0.13231479362172893,0.019050524418783292,0.005733446970679429,0.013317077448103863,0
96,0.09920271610589763,0.004039602467596802,-0.0017167249191438567,0.005756327386740659,0
97,0.06876096742198838,-0.008517117883801226,-0.00809067282084882,-0.00042644506295240643,0
98,0.04785610742351436,-0.014420093802152978,-0.01219445767752547,-0.0022256361246275076,0
99,0.04129472800793492,-0.01062675297555223,-0.009904830220105843,-0.0007219227554463876,0
100,0.055905241474021684,0.00774275285643024,0.006509283585928957,0.0012334692705012838,0
101,0.039425497825589614,0.004761541555963823,0.003295900240859585,0.001465641315104238,0
102,0.023327229724574572,0.002302610872505413,0.0008457044627923095,0.0014569064097131035,0
103,0.00043869687953002057,-0.004836904881041389,-0.0025464359729212233,-0.0022904689081201654,0
104,-0.014667734798199383,-0.006815079127770043,-0.0014337915318843788,-0.005381287595885664,0
105,-0.03076600289921424,-0.009938658003471448,-0.001771937205479959,-0.00816672079799149,0
106,-0.04381246662088963,-0.011572895690869,6.118677721421092e-05,-0.011634082468083212,0
107,-0.058384832532234664,-0.015059271983822413,-0.0014505426162597264,-0.013608729367562687,0
108,-0.06494621194781429,-0.013914503263715947,-1.8730976468591537e-05,-0.013895772287247355,0
109,-0.07364385442893122,-0.015250809763469113,-0.0019325414969492884,-0.013318268266519825,0
110,-0.08707179369802402,-0.020979935182082386,-0.009576184628845871,-0.011403750553236515,0
111,-0.08630884260318919,-0.018103381055512183,-0.007350716845298531,-0.010752664210213652,0
112,-0.08455405508506912,-0.01576384188452431,-0.006597584021069218,-0.009166257863455091,0
113,-0.07837415121690708,-0.011451543306752184,-0.0036962946394759446,-0.00775524866727624,0
114,-0.07265201800564594,-0.00839154333542847,-0.001350716471400705,-0.007040826864027764,0
115,-0.06425955596246295,-0.004235507010212493,0.0006793920492081801,-0.004914899059420673,0
116,-0.05457007705806057,0.00026263346118763465,0.004827013654126187,-0.004564380192938552,1
117,-0.05365453574425879,-0.001730300859044794,-0.0011156743557626094,-0.0006146265032821847,0
118,-0.050984206912336925,-0.002877821532814352,-0.0036975853871864003,0.0008197638543720482,0
119,-0.042133974212253025,-8.508428857881173e-05,-0.001410861132780802,0.0013257768442019903,0
120,-0.033588921950103066,0.0022622708166254073,-0.00037703496276630857,0.002639305779391716,0
121,-0.025730525673304434,0.004039326203069657,0.002331767337055957,0.0017075588660136996,0
122,-0.017948424505989102,0.005790753702982994,0.003343773413622506,0.002446980289360488,0
123,-0.015659571221484647,0.0038311402767316357,0.0020880964059377238,0.001743043870793912,0
124,-0.012073701075761,0.0028726212472620478,-0.0019034905799133407,0.0047761118271753885,0
125,-0.003910124361028444,0.005205915325321282,0.0010607995883731933,0.004145115736948089,0
126,0.0024223697261005483,0.00646499334157686,0.0017728455833901091,0.004692147758186751,0
127,0.005779354543373749,0.005925658212525701,0.00167505108398993,0.004250607128535771,0
128,0.012340733958953187,0.007918619882533886,0.0054797350544029955,0.002438884828130891,0
129,0.012569619287403633,0.005858448935123779,0.0033544428431840252,0.002504006091939754,0
130,0.013103685053788006,0.004323974855430443,0.0012238124717991877,0.0031001623836312553,0
131,0.011882963302052296,0.0018148746521601193,-0.0021736999336006277,0.003988574585760747,0
132,0.015545128557259423,0.0028857027757024896,-0.0006570982731182616,0.003542801048820751,0
133,0.015011062790875052,0.001222550988954491,-0.0015475365424099355,0.0027700875313644265,0
134,0.020428015564202262,0.003874946544132409,0.0023040851733967635,0.0015708613707356455,0
135,0.021419851987487526,0.003685234934022186,0.004099922073158015,-0.0004146871391358291,0
136,0.020580605783169226,0.002467218507093246,0.003124857456418177,-0.000657638949324931,0
137,0.020504310673685744,0.0019889462048527616,0.0009515541761756638,0.0010373920286770979,0
138,0.01737621118486299,-0.0004454246658425297,-0.001984358137728736,0.001538933471886206,0
139,0.015697718776226388,-0.001785544606989072,-0.003232826215725438,0.0014472816087363657,0
140,0.017299916075379507,-0.0008075166592159394,-0.0016973855632158108,0.0008898689039998714,0
141,0.021496147096971008,0.002045487543135614,0.0026378511057814588,-0.0005923635626458447,0
142,0.0227931639581902,0.0030389255579341017,0.0038452470211361046,-0.0008063214632020028,0
143,0.018062867170214325,1.536693703836061e-05,0.001514911793778564,-0.0014995448567402033,0
144,0.011577782864118369,-0.004166814382780194,-0.003468135848515241,-0.0006986785342649533,0
145,0.012645914396887115,-0.0031687294281704382,-0.0034922879296643127,0.00032355850149387447,0
146,0.016384374761577725,-0.0003801264793810128,0.00011177579699256704,-0.0004919022763735798,0
147,0.015545128557259423,-0.0007717488821984373,-0.0008248231013060324,5.307421910759509e-05,0
148,0.018978408484016107,0.0018381595526520186,0.003154072849669665,-0.0013159132970176463,0
149,0.013942931258106306,-0.0013795679852340531,-0.0007391498559287816,-0.0006404181293052716,0
150,0.01203555352101926,-0.0024372679253170343,-0.0010283456663781041,-0.0014089222589389301,0
151,0.013866636148622824,-0.0009574802251763817,-0.0012372945004752531,0.00027981427529887146,0
152,0.01661326009002817,0.0011395896264621487,0.0018880594756343185,-0.0007484698491721697,0
153,0.01707103074692906,0.0016936627203393427,0.0013933996481670027,0.00030026307217234,0
154,0.015697718776226388,0.0010467525410836512,-0.00026051892058499685,0.001307271461668648,0
155,0.012645914396887115,-0.0007244452366145228,-0.0008318948647799723,0.00010744962816544947,0
156,0.00913633936064695,-0.0028421669844041985,-0.0006456891185480252,-0.0021964778658561733,0
157,0.006160830090791158,-0.004703096073556798,-0.0034916674296786403,-0.001211428643878158,0
158,0.00951781490806436,-0.002321170910044553,-0.0018523523383006492,-0.0004688185717439039,0
159,0.01737621118486299,0.0031226583818917773,0.0029109821528378464,0.00021167622905393082,0
160,0.013561455710688897,0.0005213870530073628,-0.0005682623951591678,0.0010896494481665306,0
161,0.016918440527962098,0.0029783028989230614,0.00309186834733309,-0.00011356544841002866,0
162,0.014705882352941124,0.0016636074583593595,0.0019600894359614643,-0.00029648197760210487,0
163,0.007839322499427759,-0.002839438392842306,-0.0025579187052295863,-0.00028151968761271984,0
164,0.009212634470130432,-0.00168574458508829,-0.0022929198753221264,0.0006071752902338365,0
165,0.011272602426184442,-0.00012564640195161003,0.001544710906105354,-0.0016703573080569642,0
166,0.009060044251163468,-0.001572687452483582,-0.0020679992894960036,0.0004953118370124216,0
167,0.010051880674448732,-0.0008482020298651558,-0.0014628781565166858,0.0006146761266515301,0
168,0.014400701915007197,0.0021842346681737656,0.002218566974066913,-3.433230589314738e-05,0
169,0.013942931258106306,0.0019288883518753096,0.001907302432290563,2.158591958474664e-05,0
170,0.010433356221866141,-0.00039583854743798977,0.000928112697495868,-0.0013239512449338578,0
171,0.007991912718394723,-0.0020013917213905666,-0.002984664303329002,0.0009832725819384353,0
172,0.010967421988250514,9.260017568475272e-05,-1.6291149299916082e-05,0.0001088913249846688,0
173,0.011425192645151405,0.00041257472580788143,0.00038863408162760773,2.3940644180273703e-05,0
174,0.012264438849469705,0.0010063867557460733,0.000735844156749277,0.0002705425989967963,0
175,0.006542305638208568,-0.002966954582087348,-0.0029368812148726155,-3.00733672147324e-05,0
176,0.008983749141679986,-0.0013501233493156556,-0.0015219065582669294,0.00017178320895127382,0
177,0.009746700236514805,-0.000972125815642617,-0.0007865644402250565,-0.00018556137541756053,0
178,0.012188143739986224,0.0005405078443572139,0.0011528027701785198,-0.0006122949258213059,0
179,0.01707103074692906,0.003790679967467913,0.0036169608569733987,0.00017371911049451428,0
180,0.011501487754634887,-0.00012133120650870004,-0.0005101608914141062,0.0003888296849054062,0
181,0.011882963302052296,0.00013996097698957353,-7.699819136720263e-05,0.00021695916835677616,0
182,0.012493324177920151,0.000573117127734431,0.0005658452727246366,7.271855009794402e-06,0
183,0.01165407797360185,1.846457145829654e-05,0.0001619306382217689,-0.00014346606676347238,0
184,0.007686732280460796,-0.002726159327019296,-0.002831944959525699,0.00010578563250640332,0
185,0.0051689936675058945,-0.004569281508522207,-0.004432801570988978,-0.00013647993753322825,0
186,0.010204470893415696,-0.00130962139529716,-0.0010053789027972184,-0.0003042424924999416,0
187,0.01707103074692906,0.0031817320689524553,0.0033146171169228145,-0.00013288504797035914,0
188,0.018978408484016107,0.004338106859928018,0.004122869437496989,0.00021523742243102946,0
189,0.015239948119325497,0.0017296203497898146,0.0017865942898056036,-5.697394001578904e-05,0
190,0.012645914396887115,7.1579927745577536e-06,-4.2771417841619636e-05,4.992941061617739e-05,0
191,0.009288929579613914,-0.0022397023788339673,-0.002146950540014462,-9.275183881950547e-05,0
192,0.010662241550316587,-0.0012543193265385014,-0.001317623244134604,6.330391759610263e-05,0
193,0.014782177462424606,0.0016161635745260423,0.001717796191484312,-0.00010163261695826978,0
194,0.01455329213397416,0.0015213342991019058,0.0016285446774381032,-0.00010721037833619738,0
195,0.01615548943312728,0.0027920817899229774,0.0028397523365879564,-4.7670546664979e-05,0
196,0.011043717097733996,-0.0005081855206041396,-0.000557651339240097,4.9465818635957364e-05,0
197,0.012188143739986224,0.0005734224995853597,0.0005120282668481985,6.139423273716124e-05,0
198,0.008449683375295614,-0.0017287097201590022,-0.001444555384875836,-0.00028415433528316625,0
199,0.013866636148622824,0.002328367633663655,0.002455730078013086,-0.00012736244434943117,0
200,0.01161593041886011,0.0011193098538729315,0.0011171756611344503,2.134192738481198e-06,0
201,0.009632257572289582,0.00015241246365941646,-0.0003856891323165413,0.0005381015959759577,0
202,0.006961928740367718,-0.001286822790781921,-0.0014738255926042567,0.00018700280182233566,0
203,0.006809338521400754,-0.0010178901079131314,-0.0009148400217122809,-0.00010305008620085042,0
204,0.005130846112764154,-0.0018691060942137006,-0.0016606022859949273,-0.00020850380821877323,0
205,0.004291599908445853,-0.0022220182809578838,-0.00202835262480158,-0.00019366565615630375,0
206,0.006504158083466827,-0.000542614258996963,-0.00045199822874022804,-9.06160302567349e-05,0
207,0.0070382238498511995,-7.694152171659836e-05,-0.00012340893118230686,4.6467409465708506e-05,0
208,0.00993743801022351,0.0020300967389347605,0.001954095009598031,7.600172933672949e-05,0
209,0.008106355382619945,0.0008936264498385294,0.0007960996064522766,9.752684338625278e-05,0
210,0.00581750209811549,-0.0005388212878590219,-0.0008503586508465188,0.0003115373629874969,0
211,0.0023079270618753256,-0.0028629002716114493,-0.0030048237803470654,0.0001419235087356161,0
212,0.003147173266193626,-0.0022714017872949104,-0.0022174241606039997,-5.397762669091073e-05,0
213,0.00993743801022351,0.002386612238795938,0.002535455157223296,-0.00014884291842735776,0
214,0.012302586404211446,0.0040372161360552865,0.004251589935990139,-0.0002143737999348522,0
215,0.006961928740367718,0.00045247017720467586,0.00034243437053045253,0.00011003580667422332,0
216,0.0023842221713588074,-0.0025819460656141165,-0.0026627888557548937,8.084279014077727e-05,0
217,0.0032997634851605895,-0.0018788562119485543,-0.002029967115339994,0.00015111090339143987,0
218,0.004520485236896299,-0.0010458049548504236,-0.0009158832913176223,-0.00012992166353280126,0
219,0.008106355382619945,0.0013977559372799569,0.0013111738760710277,8.658206120892918e-05,0
220,0.008564126039520836,0.001704980754481305,0.001589120300574169,0.00011586045390713602,0
221,0.007648584725719055,0.0011192225732659068,0.0011273060539997257,-8.083480733818947e-06,0
222,0.005893797207598972,-1.1179319021467694e-05,0.0003069955752594107,-0.0003181748942808784,0
223,0.005130846112764154,-0.00045240721678698316,-0.0003688983604664653,-8.350885632051785e-05,0
224,0.002536812390325771,-0.0022045321473486033,-0.002135348188834967,-6.918395851363609e-05,0
225,0.003910124361028444,-0.0012779378189141982,-0.0013092094205301521,3.127160161595392e-05,0
226,0.005588616769665045,-0.0002011010668681904,-0.0004774255145434241,0.0002763244476752337,0
227,0.008945601586938245,0.0020355729498850762,0.001893372635787279,0.00014220031409779713,0
228,0.009632257572289582,0.002479331140990269,0.002465466837123779,1.3864303866489847e-05,0
229,0.00581750209811549,-0.0001340298300080719,-3.235783712558286e-05,-0.00010167199288248904,0
230,0.0042153047989623715,-0.0012080202576404838,-0.001279313866452491,7.129360881200715e-05,0
231,0.0006294346532387252,-0.003730068946861107,-0.0034714567405211894,-0.00025861220633991745,0
232,0.00413900968947889,-0.0014400858387586578,-0.0011696332263028126,-0.00027045261245584517,0
233,0.008106355382619945,0.0011085692479411362,0.001426962193293641,-0.00031839294535250485,0
234,0.010242618448157437,0.0024234633805040977,0.0022764709848441126,0.0001469923956599851,0
235,0.01077668421454181,0.002724349562663558,0.002594092499096146,0.00013025706356741213,0
236,0.010700389105058328,0.0027211415726728166,0.002471026833683322,0.00025011473898949466,0
237,0.0036812390325779987,-0.00202656275903229,-0.0022600212512495317,0.00023345849221724155,0
238,0.002536812390325771,-0.002735336331576112,-0.0029036706276186373,0.00016833429604252515,0
239,0.0019264515144579164,-0.003181292733739793,-0.0032120185834408326,3.0725849701039674e-05,0
240,0.007343404287785127,0.00046794325082779675,0.000815309795104021,-0.00034736654427622424,0
241,0.011005569542992255,0.0029119865499175716,0.003091149638131656,-0.00017916308821408445,0
242,0.006427862973983345,-0.00029163489769481527,-0.00020873320914200526,-8.290168855281001e-05,0
243,0.009174486915388691,0.0016331631504979763,0.001603642197034159,2.952095346381734e-05,0
244,0.008030060273136463,0.0009036067203192936,0.0011240824975985977,-0.0002204757772793041,0
245,0.003070878156710144,-0.0024593612724134275,-0.0025301358368408217,7.077456442739416e-05,0
246,0.006351567864499863,-0.00014818566779697262,-0.0006177021174557967,0.00046951644965882413,0
247,0.009632257572289582,0.0021574762903574254,0.0019386103207727848,0.0002188659695846406,0
248,0.009479667353322618,0.00214820273407532,0.0021257074330303613,2.2495301044958907e-05,0
249,0.007343404287785127,0.0008391635861679884,0.0009671648307005827,-0.00012800124453259435,0
250,0.004749370565346744,-0.0007569961232594814,-0.0005757848838566429,-0.0001812112394028385,0
251,0.0033760585946440713,-0.001533033813524674,-0.0011577878256586193,-0.00037524598786605455,0
252,0.004749370565346744,-0.0004532878549469332,-0.0004491182034848404,-4.169651462092815e-06,0
253,0.004520485236896299,-0.0005214148512493451,-0.0005143233252202065,-7.091526029138627e-06,0
254,0.004367895017929335,-0.0005633648427291916,-0.0008545584214012724,0.0002911935786720809,0
255,0.006885633630884236,0.0012381812069885197,0.0010570272494835704,0.00018115395750494933,0
256,0.006427862973983345,0.0010014549634933259,0.0007611426983096726,0.00024031226518365326,0
257,0.0029182879377431803,-0.0013376423645388876,-0.0013909748346325002,5.333247009361259e-05,0
258,-5.722133211261138e-05,-0.0033654723516672058,-0.0030267685753036034,-0.0003387037763636024,0
259,0.005588616769665045,0.0005013124435231424,0.0007239709268489188,-0.00022265848332577636,0
260,0.008411535820553873,0.002403017798425816,0.0025157691660058243,-0.00011275136758000844,0
261,0.010242618448157437,0.003703916492583049,0.0037312373766757116,-2.7320884092662742e-05,0
262,0.005436026550698081,0.000498803643357899,0.00044745692796474177,5.134671539315722e-05,0
263,-0.0005912870984969842,-0.003554147650934544,-0.003761821870646308,0.0002076742197117641,0
264,-0.001201647974364839,-0.003977007887961348,-0.004239684597435957,0.00026267670947460915,0
265,0.00207904173342488,-0.0018595440109491258,-0.0021272619735762765,0.00026771796262715073,0
266,0.0042153047989623715,-0.0006418505613037627,-0.0006265673841644358,-1.528317713932691e-05,0
267,0.0042153047989623715,-0.0009653473050850658,-0.0007443995337440134,-0.00022094777134105243,0
268,0.009861142900740028,0.002615862758219238,0.0026169665605023113,-1.1038022830734372e-06,0
269,0.009479667353322618,0.0020731860428902034,0.0021828968912887313,-0.00010971084839852792,0
270,0.005054551003280672,-0.0012225531572961476,-0.0011005707386804913,-0.00012198241861565632,0
271,0.008258945601586909,0.0007755023906906863,0.000473429320098646,0.0003020730705920403,0
272,0.006351567864499863,-0.0007786466398724487,-0.0009231199157896377,0.00014447327591718905,0
273,0.007114518959334681,-0.000492165617894732,-0.0002599935201667147,-0.00023217209772801736,0
274,0.010852979324025291,0.001863772388411803,0.0019348724076517006,-7.110001923989759e-05,0
275,0.0103952086671244,0.00136338201012958,0.0013020649123451377,6.131709778444219e-05,0
276,0.008106355382619945,-0.00035477472671564976,-0.0006020712109762465,0.0002472964842605967,0
277,0.007419699397268609,-0.000955903210902238,-0.0010152535794145975,5.935036851235952e-05,0
278,0.005588616769665045,-0.002390949635089586,-0.002204631119231413,-0.000186318515858173,0
279,0.009479667353322618,9.426733278134538e-05,0.00020030409614450802,-0.00010603676336316264,0
280,0.011387045090409664,0.0012038864787701847,0.0012911928943245877,-8.730641555440306e-05,0
281,0.01329442282749671,0.0023771379646862576,0.0024897051359267525,-0.00011256717124049492,0
282,0.011158159761959219,0.0008290571728123453,0.0010559937826640714,-0.00022693660985172615,0
283,0.012912947280079301,0.00205628473046143,0.0021758578985034494,-0.00011957316804201952,0
284,0.008640421149004318,-0.000845019966535514,-0.0009679133361274088,0.00012289336959189485,0
285,0.008869306477454764,-0.0006185185930443617,-0.0007160412794301479,9.752268638578616e-05,0
286,0.011005569542992255,0.00092437557563431,0.0007627457483358369,0.00016162982729847316,0
287,0.011310749980926182,0.001226172368959257,0.0012925817702601405,-6.64094013008835e-05,0
288,0.012302586404211446,0.0020629968988964804,0.002174651435970214,-0.00011165453707373367,0
289,0.009479667353322618,0.00031181276593081217,0.0006702506638237766,-0.00035843789789296443,0
290,0.004596780346379781,-0.0028744631007398156,-0.0028655645189688667,-8.898581770948929e-06,0
291,0.0018501564049744346,-0.0046917281494413925,-0.004321354198104521,-0.0003703739513368715,0
292,0.006885633630884236,-0.001259521730155353,-0.0011422450798852623,-0.00011727665027009074,0
293,0.010547798886091364,0.0011502121399731263,0.0011317094116706818,1.8502728302444496e-05,0
294,0.015964751659418575,0.00483542566650889,0.00451341774843305,0.00032200791807583933,0
295,0.010242618448157437,0.0009136766365762703,0.0004017055165452146,0.0005119711200310557,0
296,0.006809338521400754,-0.0013675814136258168,-0.0015138450455227156,0.00014626363189689873,0
297,0.006809338521400754,-0.0013047531394018237,-0.000996624932659369,-0.0003081282067424547,0
298,0.006046387426565936,-0.0018390649267285618,-0.0013661014032912977,-0.0004729635234372641,0
299,0.008869306477454764,5.4697742318585976e-05,9.564109029088378e-05,-4.0943347972297804e-05,0
300,0.010128175783932214,0.0008455084766037774,0.0007118695313752726,0.00013363894522850478,0
301,0.009288929579613914,0.0001917679491260405,-8.318518146561329e-05,0.0002749531305916538,0
302,0.006160830090791158,-0.0020691420661791454,-0.002068039809190932,-1.1022569882134826e-06,0
303,0.007381551842526868,-0.0013803300037979868,-0.0016234149163252259,0.00024308491252723907,0
304,0.006694895857175531,-0.0020989667044191626,-0.0022211903345698094,0.0001222236301506468,0
305,0.006313420309758122,-0.0027029556892793904,-0.0026820163101217835,-2.0939379157606988e-05,0
306,0.012493324177920151,0.0011713814613746375,0.0012917406238285834,-0.00012035916245394592,0
307,0.014629587243457642,0.0022572604825691713,0.002272492949120712,-1.5232466551540463e-05,0
308,0.019207293812466553,0.005151836502362795,0.004970563567143473,0.00018127293521932267,0
309,0.012340733958953187,0.00024499325471949337,0.00023376816008097113,1.122509463852224e-05,0
310,0.011348897535667923,-0.0005279345561967994,-0.0007760736064324888,0.0002481390502356894,0
311,0.007228961623559904,-0.0035117412193093832,-0.0035597535065391736,4.8012287229790354e-05,0
312,0.008754863813229541,-0.0026804511243682825,-0.0029376875684009296,0.0002572364440326471,0
313,0.012645914396887115,-0.0002962356353876502,-0.00016675899701039127,-0.00012947663837725894,0
314,0.015621423666742905,0.0014461399508663194,0.00166761437686521,-0.0002214744259988906,0
315,0.015316243228808977,0.0009667739793692426,0.0009359091101772681,3.086486919197449e-05,0
316,0.014171816586556751,-3.9288878040205126e-05,-0.00011882186082965119,7.953298278944607e-05,0
317,0.01821545738918129,0.0026139601990339684,0.0026157822071212534,-1.8220080872850299e-06,0
318,0.012493324177920151,-0.0014435182913977549,-0.0013883227773431944,-5.519551405456049e-05,0
319,0.013790341039139342,-0.000614661596419687,-0.0007721927156941087,0.00015753111927442164,0
320,0.017986572060730843,0.002247832759161739,0.002088727686171139,0.0001591050729906002,0
321,0.018444342717631734,0.002612107401339669,0.0026074362910821634,4.671110257505745e-06,0
322,0.012417029068436669,-0.001432885403764793,-0.0013753742806537034,-5.751112311108957e-05,0
323,0.012645914396887115,-0.0011274558559907259,-0.001007597006373478,-0.0001198588496172479,0
324,0.013866636148622824,-0.00015129271121310523,7.298541704426438e-05,-0.0002242781282573696,0
325,0.01699473563744558,0.0021779989834360184,0.002214766678530917,-3.676769509489879e-05,0
326,0.012417029068436669,-0.0007816752597206233,-0.0008027197847533894,2.104452503276608e-05,0
327,0.01455329213397416,0.000952932362825113,0.001049280297846679,-9.634793502156602e-05,0
328,0.011730373083085333,-0.0007301361655413404,-0.0007687201969086453,3.858403136730484e-05,0
329,0.011501487754634887,-0.0006075829887362556,-0.000528223276518128,-7.935971221812756e-05,0
330,0.015697718776226388,0.0026089903435905218,0.002546766043063907,6.222430052661493e-05,0
331,0.010204470893415696,-0.0008405868616833146,-0.0007330424076020556,-0.00010754445408125903,0
332,0.010204470893415696,-0.0004588199111041287,-0.00028441312733370593,-0.00017440678377042275,0
333,0.012493324177920151,0.0015226092204255884,0.001624898696063736,-0.00010228947563814756,0
334,0.011348897535667923,0.0011745973888417703,0.0012065522306164902,-3.195484177471986e-05,0
335,0.010662241550316587,0.0012084385531038687,0.0011318367880196805,7.66017650841882e-05,0
336,0.005703059433890267,-0.0016940897048210969,-0.0014826338459619141,-0.0002114558588591827,0
337,0.003566796368352776,-0.0026850697703960074,-0.002730726506571897,4.56567361758896e-05,0
338,0.0028038452735179575,-0.002826092976895886,-0.0029079569660360473,8.186398914016143e-05,0
339,0.00791561760891124,0.0010311003035682815,0.0010892742774405036,-5.817397387222214e-05,0
340,0.008678568703746059,0.0018813646750550522,0.002027847379253149,-0.00014648270419809683,0
341,0.008220798046845168,0.0019527462444341231,0.0019814842657766936,-2.8738021342570447e-05,0
342,0.006008239871824195,0.0008713501937209267,0.0008386397526599799,3.27104410609468e-05,0
343,0.005245288776989376,0.000834348773697127,0.0007839679666603234,5.038080703680364e-05,0
344,0.002956435492484921,-0.0002503405362582639,-0.0004216402962448682,0.00017129975998660428,0
345,-0.0033760585946440713,-0.004198520418863659,-0.004406251228752005,0.0002077308098883462,0
346,-0.003147173266193626,-0.003745913582787948,-0.0034489771604750367,-0.00029693642231291145,0
347,0.0014305333028152845,-0.0004258450015955465,-0.00017276223044002473,-0.0002530827711555218,0
348,0.008068207827878204,0.004298911844507813,0.004109212538361751,0.00018969930614606226,0
349,0.0075341420614938315,0.004157767780143433,0.004041066130655603,0.00011670164948783014,0
350,-0.0032234683756771076,-0.0029952257103608238,-0.0034329073789338416,0.0004376816685730178,0
351,-0.003070878156710144,-0.002647837834655804,-0.0027065363587406685,5.8698524084864305e-05,0
352,5.722133211261138e-05,-0.0003492720014003471,-0.00018543914758743205,-0.00016383285381291505,0
353,-0.0005531395437552433,-0.0007085531272935878,-0.0008616266849353241,0.00015307355764173627,0
354,0.0017357137407492118,0.0009143262257576454,0.0008715064803149407,4.281974544270467e-05,0
355,0.0009727626459143934,0.0004172687133580011,0.0006260709657576969,-0.00020880225239969577,0
356,0.0010490577553978753,0.0005083100882482291,0.000593595212394845,-8.528512414661589e-05,0
357,0.0005149919890135024,0.00017537452979730635,0.00016245610925732276,1.2918420539983588e-05,0
358,-0.00581750209811549,-0.0042332514531941675,-0.004232248041399443,-1.0034117947244764e-06,0
359,-0.0013160906385900617,-0.0012430825980743374,-0.0014699882739845939,0.00022690567591025649,0
360,0.0037193865873197396,0.0020528849669856604,0.001783149165890484,0.0002697358010951764,0
361,0.004940108339055449,0.002747663898238068,0.002638500747726841,0.00010916315051122697,0
362,0.0017357137407492118,0.0004439935324047267,0.0006539584499727733,-0.0002099649175680466,0
363,0.0008964675364309116,-0.00019518343240154808,-0.00036771463439293776,0.00017253120199138967,0
364,-0.0028419928282596985,-0.0028885696808470846,-0.002636915220478927,-0.0002516544603681577,0
365,-9.53688868543523e-05,-0.00117083671940391,-0.0010485587414430957,-0.00012227797796081417,0
366,0.0005912870984969842,-0.0009587536125728686,-0.0009314493268794743,-2.730428569339431e-05,0
367,0.0056267643244067855,0.002252858609795337,0.0023354586677901542,-8.260005799481723e-05,0
368,0.007991912718394723,0.003682245346632243,0.003538242061170396,0.00014400328546184706,0
369,-0.00024795910582131597,-0.002170803621103846,-0.0020368097177818983,-0.00013399390332194784,0
370,0.002040894178683139,-0.0007359155107403362,-0.0007144585270465729,-2.1456983693763265e-05,0
371,0.0010490577553978753,-0.0016325852938027193,-0.0018582053842626128,0.00022562009045989343,0
372,0.006847486076142495,0.0021648452175601946,0.0019218107506505802,0.00024303446690961432,0
373,0.004329747463187594,0.00022901310782199737,0.00044346926216266445,-0.00021445615434066709,0
374,0.009441519798580877,0.0036600948952634294,0.003912257778295023,-0.0002521628830315934,0
375,0.004329747463187594,8.763844602590122e-05,8.200647236573913e-05,5.631973660162086e-06,0
376,0.0033379110399023304,-0.0005837068306558291,-0.0006454339997834029,6.172716912757384e-05,0
377,0.00036240177004653873,-0.0026629707736729206,-0.0025718048780099187,-9.116589566300192e-05,0
378,0.0023460746166170665,-0.001371379509287204,-0.001196351744264359,-0.0001750277650228451,0
379,0.007610437170977313,0.00216918750701335,0.0019571597557296876,0.0002120277512836625,0
380,0.004787518120088485,0.0001390576543712216,0.00021036386039970675,-7.130620602848516e-05,0
381,0.00791561760891124,0.0022944533864259135,0.002007017767400569,0.0002874356190253444,0
382,0.005550469214923304,0.0007018477664110767,0.0008727636629536078,-0.00017091589654253119,0
383,0.0047112230106050035,0.0002129122949353407,0.0003622678028003828,-0.00014935550786504212,0
384,0.001201647974364839,-0.0021378268195680885,-0.0022461313092503924,0.00010830448968230386,0
385,0.0009727626459143934,-0.0022800502725804986,-0.0022098974938295764,-7.015277875092223e-05,0
386,0.00745784695201035,0.0021862912260271162,0.002501917887782059,-0.0003156266617549428,0
387,0.005092698558022413,0.0005381950598939993,0.0005782440095984539,-4.004894970445461e-05,0
388,0.007305256733043386,0.0021201423395774467,0.001834054777607467,0.00028608756196997964,0
389,0.003566796368352776,-0.0003835788242002394,-0.00048611610255731456,0.00010253727835707517,0
390,0.0028038452735179575,-0.0008219854530870616,-0.0008299521991133343,7.966746026272752e-06,0
391,0.0008201724269474298,-0.0021570630896320985,-0.0021074996754632614,-4.956341416883711e-05,0
392,0.00043869687953002057,-0.0024667415832422784,-0.0025610346699368224,9.429308669454397e-05,0
393,0.0010490577553978753,-0.0021913186533517857,-0.0020355772844961365,-0.0001557413688556492,0
394,0.007839322499427759,0.002320628954981181,0.002149086585545805,0.00017154236943537574,0
395,0.00913633936064695,0.003079059508138808,0.0031797763402148516,-0.00010071683207604374,0
396,0.008602273594262577,0.002685465291998132,0.0029129916390351323,-0.0002275263470370003,0
397,0.004940108339055449,0.00021329920406821495,0.0003457147311621017,-0.00013241552709388672,0
398,-0.000705729762722207,-0.003642169300537168,-0.003849374478051206,0.000207205177514038,0
399,0.0007438773174639479,-0.0026813388242659403,-0.002791012285849405,0.00010967346158346483,0
400,0.0014305333028152845,-0.0023741390556953753,-0.002447532303324452,7.339324762907669e-05,0
401,0.008602273594262577,0.002375020004952729,0.0022252009416529927,0.00014981906329973637,0
402,0.006771190966659013,0.0009102598008392398,0.000896680974263745,1.3578826575494775e-05,0
403,0.006389715419241604,0.0004989132230195435,0.0003525899057966736,0.0001463233172228699,0
404,0.004482337682154558,-0.0009623425686658462,-0.0006529448786493377,-0.00030939769001650855,0
405,0.006847486076142495,0.0005302488974752605,0.0005507244773414341,-2.0475579866173575e-05,0
406,0.007228961623559904,0.0006543431967425274,0.0006937422064090094,-3.939900966648199e-05,0
407,0.005703059433890267,-0.0005304919573130074,-0.0006690742138898729,0.0001385822565768655,0
408,0.009746700236514805,0.0021685707340559097,0.0018062663070139758,0.00036230442704193386,0
409,0.008907454032196505,0.0015384141194524975,0.0018191294898809933,-0.0002807153704284958,0
410,0.004863813229571967,-0.0012707218849178994,-0.0008093031865893791,-0.00046141869832852034,0
411,0.0007438773174639479,-0.004185197954187828,-0.00392675252203464,-0.00025844543215318774,0
412,0.005703059433890267,-0.0009089742293214623,-0.0012714247823557695,0.0003624505530343072,0
413,0.008220798046845168,0.0006220153266824396,0.0004237855667786212,0.00019822975990381843,0
414,0.011272602426184442,0.0025621514493635784,0.002410655208563271,0.0001514962408003073,0
415,0.011577782864118369,0.0026961392085685224,0.002543875622981509,0.00015226358558701348,0
416,0.009288929579613914,0.0011375460651161598,0.001125969889747094,1.1576175369065744e-05,0
417,0.00539787899595634,-0.0014852811655566242,-0.001236434484771282,-0.0002488466807853422,0
418,0.006847486076142495,-0.00041763649472700685,-0.00011794173979413235,-0.0002996947549328745,0
419,0.00829709315632865,0.0006396030055164541,0.0006539769750690742,-1.437396955262008e-05,0
420,0.00539787899595634,-0.0013194307810678297,-0.0013329042864903176,1.347350542248789e-05,0
421,0.008449683375295614,0.0008418699687649259,0.000794977292687102,4.689267607782392e-05,0
422,0.006923781185625977,-0.00016833770807152024,-0.00018140453156603048,1.306682349451024e-05,0
423,0.0051689936675058945,-0.0013454573088498237,-0.0015788486802092159,0.00023339137135939213,0
424,0.003948271915770185,-0.0022058734071910622,-0.0024038388796829113,0.00019796547249184906,0
425,0.00913633936064695,0.0013324814479102258,0.0014201339074596398,-8.765245954941406e-05,0
426,0.008602273594262577,0.0009150760221342882,0.0009688261531431959,-5.3750131008907694e-05,0
427,0.0075341420614938315,0.00016229839277704395,0.0005454327687302191,-0.0003831343759531752,0
428,0.012264438849469705,0.0034823722045072116,0.003673595250929381,-0.0001912230464221694,0
429,0.008831158922713023,0.001226802810433943,0.0007044527045769878,0.0005223501058569551,0
430,0.005092698558022413,-0.0011918745830129217,-0.0016015122283464748,0.0004096376453335531,0
431,-0.0020027466239413982,-0.006018116028333262,-0.005914470204430913,-0.00010364582390234942,0
432,0.0037956816968032214,-0.0020636784823879592,-0.002086946000141258,2.3267517753298994e-05,0
433,0.009670405127031323,0.0018542354107981586,0.002120604205533786,-0.00026636879473562747,0
434,0.008678568703746059,0.0010371010624820477,0.0013929449989575505,-0.00035584393647550283,0
435,0.011806668192568814,0.0031555873847040916,0.003067581540163086,8.800584454100565e-05,0
436,0.005855649652857231,-0.0009535567261891716,-0.0011625392974548196,0.0002089825712656481,0
437,0.01119630731670096,0.002817503352322333,0.002841755529918423,-2.425217759608996e-05,0
438,0.005703059433890267,-0.0008852221675100352,-0.0006151528808941425,-0.00027006928661589275,0
439,-1.907377737087046e-05,-0.004785498624941044,-0.004992722095883199,0.0002072234709421545,0
440,0.004406042572671076,-0.001775530630789915,-0.001947866358805322,0.00017233572801540688,0
441,0.010051880674448732,0.0020140395214194614,0.0016850217487334729,0.00032901777268598857,0
442,0.00791561760891124,0.00043314594473659897,0.0006603006732422307,-0.00022715472850563172,0
443,0.009670405127031323,0.0015998301880015668,0.0016339484781810836,-3.411829017951678e-05,0
444,0.005092698558022413,-0.0016042780692263061,-0.0011889741934474705,-0.00041530387577883563,0
445,0.011043717097733996,0.002506582747213635,0.002594408323362548,-8.782557614891301e-05,0
446,0.006694895857175531,-0.0004966496087454209,-0.0005570629318144161,6.0413323068995214e-05,0
447,0.006618600747692049,-0.0005247117545755858,-0.00036790683561736457,-0.00015680491895822123,0
448,0.008602273594262577,0.0008696434938191546,0.0008319403026808107,3.770319113834391e-05,0
449,0.007000076295109459,-0.00021278501967004858,-0.00046472340271716,0.00025193838304711144,0
450,0.00951781490806436,0.0015849255790450281,0.0010856991815048644,0.0004992263975401637,0
451,0.002117189288166621,-0.003503590323292286,-0.003476599710195188,-2.6990613097098003e-05,0
452,0.0037193865873197396,-0.00242798687570407,-0.002111578319563643,-0.0003164085561404269,0
453,0.0075341420614938315,9.804238602394478e-05,0.0005445366621789375,-0.0004464942761549927,0
454,0.01287479972533756,0.0037030668952031305,0.003713394412635441,-1.032751743231062e-05,0
455,0.01035706111238266,0.0019629115699007762,0.0017812876380745067,0.00018162393182626947,0
456,0.008754863813229541,0.0009559827143574718,0.0007913707393296725,0.00016461197502779933,0
457,0.007763027389944278,0.00042451549816956336,0.000320730225939985,0.00010378527222957835,0
458,0.0037193865873197396,-0.002223732048968798,-0.002176313688991155,-4.7418359977643206e-05,0
459,0.0033379110399023304,-0.002396046052117536,-0.002471153397705263,7.510734558772688e-05,0
460,0.006008239871824195,-0.0005290642788906494,-0.00015752976342529938,-0.00037153451546535,0
461,0.013637750820172378,0.004793480327067801,0.004686449242406301,0.00010703108466149965,0
462,0.004863813229571967,-0.0011809940432013035,-0.001426699623020328,0.00024570557981902453,0
463,0.0047112230106050035,-0.0011623675092346315,-0.001434655754082876,0.0002722882448482444,0
464,0.0028038452735179575,-0.002426820545452023,-0.002204227844266966,-0.00022259270118505725,0
465,0.0075341420614938315,0.0008552938528288831,0.0008866513678440355,-3.1357515015152464e-05,0
466,0.007686732280460796,0.0009600497881492642,0.00109882836895801,-0.00013877858080874582,0
467,0.007228961623559904,0.0006738616474245413,0.001013448368588576,-0.00033958672116403475,0
468,0.008754863813229541,0.0018033465870023455,0.0014845725640614742,0.0003187740229408714,0
469,0.006618600747692049,0.0004375553769142135,0.0002941670012088487,0.0001433883757053648,0
470,0.006389715419241604,0.00042245657926343375,0.00015081581309918504,0.0002716407661642487,0
471,0.00013351644159609322,-0.0038071802432139037,-0.003851831528426121,4.465128521221728e-05,0
472,0.0018120088502326936,-0.0026425739081481466,-0.002521660727090786,-0.00012091318105736078,0
473,0.0047112230106050035,-0.000740808346640712,-0.0004415139174602461,-0.00029929442918046593,0
474,0.008144502937361686,0.0014998180110440261,0.0016315218401754589,-0.00013170382913143272,0
475,0.009899290455481768,0.0026258582173148844,0.0025661198505077445,5.9738366807139936e-05,0
476,0.006389715419241604,0.00017270418129320506,0.0001812418876903125,-8.537706397107424e-06,0
477,0.007228961623559904,0.0007766672113334725,0.0004813202782152158,0.0002953469331182567,0
478,0.003490501258869294,-0.001795756452653737,-0.0017901027011722618,-5.6537514814753494e-06,0
479,0.006847486076142495,0.0005298582308591925,0.0003815007723831748,0.00014835745847601768,0
480,0.005779354543373749,-0.00022574468008065935,-0.00010848004435296038,-0.00011726463572769897,0
481,0.006923781185625977,0.0005586411084424904,0.0006554042863888527,-9.676317794636233e-05,0
482,0.0047112230106050035,-0.000989393190952874,-0.0010200501639822503,3.0656973029376255e-05,0
483,0.006008239871824195,-0.00012193244906889299,-0.00013437908385659794,1.2446634787704954e-05,0
484,0.003109025711451885,-0.002205268124020131,-0.002208063119958863,2.794995938731632e-06,0
485,0.006771190966659013,0.0002149844114295929,0.00017742034640029432,3.756406502929859e-05,0
486,0.008602273594262577,0.0013586346256196373,0.0013854870297702654,-2.6852404150628064e-05,0
487,0.008754863813229541,0.0013827586571521894,0.0013651811737166164,1.7577483435572997e-05,0
488,0.008907454032196505,0.0014662728278538038,0.0014498695411057849,1.6403286748018896e-05,0
489,0.00829709315632865,0.0010781318982257414,0.0010898368590237773,-1.1704960798035935e-05,0
490,0.006313420309758122,-0.000226459131169669,-0.00020809747114641284,-1.836166002325615e-05,0
491,0.0023460746166170665,-0.0029316177487197837,-0.002937882699174449,6.264950454665241e-06,0
492,0.0028038452735179575,-0.0026591300890367055,-0.0026085588341767784,-5.057125485992712e-05,0
493,0.008144502937361686,0.000924637879824807,0.0009318346589898796,-7.196779165072526e-06,0
494,0.011348897535667923,0.003052746246381734,0.0030263012436261665,2.6445002755567416e-05,0
495,0.008831158922713023,0.0013031500088491025,0.0013269879847727277,-2.3837975923625193e-05,0
496,0.005550469214923304,-0.0009211594913961083,-0.0008767333663336562,-4.442612506245212e-05,0
497,0.007228961623559904,0.0002965908644535549,0.0002842659473901274,1.2324917063427502e-05,0
498,0.004024567025253667,-0.0018934043718829962,-0.0019198909639149152,2.6486592031918976e-05,0
499,0.006313420309758122,-0.0003099167553451277,-0.0003415685292081162,3.16517738629885e-05,0
500,0.00665674830243379,-0.00010163198928814174,-0.00011425373383189558,1.2621744543753839e-05,0
501,0.009250782024872173,0.0016822976082774182,0.0016941951918811036,-1.1897583603685423e-05,0
502,0.005207141222247635,-0.0011146539056775347,-0.001064868157772138,-4.9785747905396575e-05,0
503,0.009861142900740028,0.0021400687152485737,0.0021842835797845376,-4.421486453596397e-05,0
504,0.004825665674830226,-0.0013080486240463172,-0.001328129116510445,2.0080492464127648e-05,0
505,0.0032234683756771076,-0.0024057874845904268,-0.0024434178037199225,3.76303191294957e-05,0
506,0.007190814068818163,0.0002975318243139477,0.00029733961375515866,1.9221055878903322e-07,0
507,0.009632257572289582,0.001942466987662379,0.0019382496015363008,4.217386126078313e-06,0
508,0.01077668421454181,0.0027601234744998528,0.0027640160454958157,-3.892570995962883e-06,0
509,0.008411535820553873,0.0012338005898474664,0.0012076569550883345,2.614363475913193e-05,0
510,0.0042153047989623715,-0.0015258014399443826,-0.0015449140709432514,1.9112630998868773e-05,0
511,-5.722133211261138e-05,-0.004407274340002753,-0.004413082904015909,5.808564013155999e-06,0
512,0.004444190127412817,-0.0013284291618367728,-0.0012930304916539575,-3.5398670182815346e-05,0
513,0.005054551003280672,-0.0010370221039842109,-0.001077813881429993,4.0791777445782105e-05,0
514,0.010624093995574846,0.0026870923796617633,0.0026888194404844955,-1.727060822732246e-06,0
515,0.011921110856794037,0.0035320351870553944,0.0035338762313507194,-1.8410442953250422e-06,0
516,0.008945601586938245,0.0015348514928624807,0.0015987164830541635,-6.386499019168284e-05,0
517,0.00665674830243379,8.688937880458704e-05,4.2629139464703276e-05,4.426023933988376e-05,0
518,-5.722133211261138e-05,-0.00445955350364708,-0.004465000375713795,5.4468720667149445e-06,0
519,0.0017738612954909527,-0.0032057382170070006,-0.003260693966601512,5.495574959451166e-05,0
520,0.006809338521400754,0.00015682210865378246,0.00014560960233263645,1.1212506321146007e-05,0
521,0.013065537499046265,0.004381397100232548,0.00438185305591894,-4.559556863919026e-07,0
522,0.006733043411917272,-3.383979114164392e-05,1.3114782240363525e-05,-4.695457338200745e-05,0
523,0.005283436331731117,-0.0010269642528985263,-0.0010426285328373076,1.5664279938781226e-05,0
524,0.005893797207598972,-0.0006203305813962022,-0.000652281186857462,3.1950605461259786e-05,0
525,0.006961928740367718,7.954082400597268e-05,0.0001437754204357054,-6.42345964297327e-05,0
526,0.005893797207598972,-0.0007163103747809843,-0.0006866897264219339,-2.9620648359050426e-05,0
527,0.007724879835202537,0.0004893235585167098,0.0004898688368302702,-5.452783135603649e-07,0
528,0.009021896696421727,0.0013412965773514948,0.0013399881722241647,1.3084051273301155e-06,0
529,0.005512321660181563,-0.0011190019754980648,-0.0011254629899602824,6.461014462217588e-06,0
530,0.006275272755016381,-0.000629704201862892,-0.0007264248453435026,9.67206434806106e-05,0
531,0.006961928740367718,-0.00021803018981379074,-0.00022495189095299845,6.921701139207711e-06,0
532,0.008411535820553873,0.000723521095528443,0.0007766683883161032,-5.3147292787660244e-05,0
533,0.009784847791256546,0.0016481841977589833,0.0017212690652395936,-7.30848674806103e-05,0
534,0.008030060273136463,0.00045666939756650125,0.00047582088400551707,-1.9151486439015824e-05,0
535,0.008182650492103427,0.0006292246067885295,0.00064439131138235,-1.5166704593820514e-05,0
536,0.009174486915388691,0.0014238944834430267,0.0014008241333342021,2.3070350108824562e-05,0
537,0.007190814068818163,0.00019868134864285474,0.00019825530763848805,4.260410043666898e-07,0
538,0.00207904173342488,-0.003207310739791456,-0.0032970206140356777,8.97098742442216e-05,0
539,0.0017738612954909527,-0.003377297252336381,-0.0033955407270830564,1.8243474746675384e-05,0
540,0.005741206988632008,-0.0006934252613606509,-0.0006596239379649095,-3.380132339574136e-05,0
541,0.013447013046463674,0.004584877641827475,0.004682531374936059,-9.765373310858388e-05,0
542,0.012073701075761,0.003695905980263795,0.0036922380116003865,3.6679686634083324e-06,0
543,0.008487830930037354,0.0014151974720123116,0.0013997593355678725,1.5438136444439077e-05,0
544,0.004444190127412817,-0.001126990404970813,-0.0011624317599352228,3.544135496440985e-05,0
545,0.0010109102006561344,-0.0032937504736695413,-0.0032583307834516987,-3.541969021784259e-05,0
546,-0.0007438773174639479,-0.004431417181253225,-0.00450711899788898,7.570181663575475e-05,0
547,0.006351567864499863,0.0004389598696712353,0.0004437588327318263,-4.798963060590996e-06,0
548,0.009327077134355655,0.0024314676339022277,0.002468612517320201,-3.714488341797313e-05,0
549,0.007419699397268609,0.0010972836312682672,0.0011332257638510571,-3.594213258278998e-05,0
550,0.007114518959334681,0.0009273497087695035,0.0008898938891036373,3.7455819665866254e-05,0
551,0.005512321660181563,-0.00011829819155277128,-0.00012897967916578293,1.0681487613011642e-05,0
552,0.004367895017929335,-0.0008540908892540348,-0.0008619321356510833,7.841246397048457e-06,0
553,0.0019264515144579164,-0.0025418734906544806,-0.0025545898427364326,1.271635208195199e-05,0
554,0.0070382238498511995,0.0009522908655865107,0.0010071527945122154,-5.486192892570471e-05,0
555,0.004444190127412817,-0.0009206022251523412,-0.0009250147903273869,4.412565175045732e-06,0
556,0.006275272755016381,0.0002666137102040661,0.00025820134622735294,8.412363976713149e-06,0
557,0.008869306477454764,0.0019979678589810194,0.0019980903160608174,-1.2245707979802525e-07,0
558,0.0023079270618753256,-0.002606269243947754,-0.0026266227088205694,2.0353464872815454e-05,0
559,0.005512321660181563,-0.0004750395897159661,-0.000489099116390707,1.4059526674740843e-05,0
560,0.009327077134355655,0.002063723383220347,0.0020386707551853446,2.5052628035002276e-05,0
561,0.008411535820553873,0.0013740668197999386,0.0013202699359769973,5.379688382294132e-05,0
562,0.004444190127412817,-0.0013966393137591802,-0.0013565829829692273,-4.005633078995284e-05,0
563,0.0065804531929503085,5.227981643249166e-05,0.00015119116600164205,-9.891134956915039e-05,0
564,0.007114518959334681,0.000378961382297001,0.0004083303975658079,-2.93690152688069e-05,0
565,0.005741206988632008,-0.0006170905904271198,-0.0006486390133079322,3.1548422880812456e-05,0
566,0.004825665674830226,-0.0013201663129454573,-0.0014086279594686336,8.846164652317632e-05,0
567,0.004444190127412817,-0.0017063520571451904,-0.0017233897832236171,1.7037726078426678e-05,0
568,0.009784847791256546,0.0018467435647831518,0.001875197866293238,-2.8454301510086235e-05,0
569,0.01161593041886011,0.0030193042854853836,0.0030485568127269604,-2.9252527241576797e-05,0
570,0.0103952086671244,0.002183404793866131,0.0021671675391227684,1.6237254743362798e-05,0
571,0.004444190127412817,-0.0018734030075365908,-0.0018867602793874144,1.3357271850823619e-05,0
572,0.003986419470511926,-0.0021562142475401837,-0.0021446336654906417,-1.1580582049541994e-05,0
573,0.0046730754558632626,-0.0017263320972293493,-0.001690037650972558,-3.629444625679137e-05,0
574,0.008030060273136463,0.0005054325459490569,0.0005123899090600134,-6.957363110956486e-06,0
575,0.01077668421454181,0.002335507583009069,0.0023094327951079215,2.60747879011476e-05,0
576,0.01161593041886011,0.0029337023125700647,0.0029619931352163984,-2.829082264633369e-05,0
577,0.006809338521400754,-0.00029571485140172265,-0.0002587249712907555,-3.6989880110967145e-05,0
578,0.0022316319523918438,-0.003372367521584688,-0.0034172949912982917,4.492746971360368e-05,0
579,0.007190814068818163,9.772711544059177e-05,1.4787617393195344e-05,8.293949804739643e-05,0
580,0.0042153047989623715,-0.0019885313467683024,-0.002021113537183253,3.2582190414950484e-05,0
581,0.009784847791256546,0.001834774447453902,0.0018866470777607468,-5.187263030684481e-05,0
582,0.010166323338673955,0.0021015215857887234,0.0021501246478409014,-4.8603062052177994e-05,0
583,0.009632257572289582,0.0018181523129685438,0.001813240184062183,4.912128906360775e-06,0
584,0.0018501564049744346,-0.0034690402550931294,-0.003488484435396575,1.9444180303445757e-05,0
585,0.00581750209811549,-0.0006669717259038186,-0.0006600491188267628,-6.922607077055861e-06,0
586,0.0056649118791485265,-0.0007842862233774198,-0.000837074584710561,5.278836133314126e-05,0
587,0.007419699397268609,0.0003998764275748246,0.00035510125543016414,4.477517214466044e-05,0
588,0.0112344548714427,0.0030431661645594576,0.0030096884342011936,3.347773035826396e-05,0
589,0.007572289616235572,0.000571307949208056,0.0006272667390697854,-5.595878986172946e-05,0
590,0.00909819180590521,0.0017583067498848216,0.0017610521800297712,-2.745430144949568e-06,0
591,0.0006294346532387252,-0.003992083649643894,-0.004005158355955165,1.3074706311270827e-05,0
592,0.0032234683756771076,-0.002161418622155999,-0.002173587969787215,1.2169347631216156e-05,0
593,0.002994583047226662,-0.0024075430596959607,-0.002444191722931617,3.66486632356563e-05,0
594,0.010242618448157437,0.0024825450670740708,0.0025136967597740585,-3.115169269998774e-05,0
595,0.009632257572289582,0.0019671061966753294,0.0020387192390727508,-7.16130423974214e-05,0
596,0.00497825589379719,-0.0012992084856271113,-0.0012519297743572503,-4.7278711269860925e-05,0
597,0.008487830930037354,0.0011046875998386306,0.0011062613589102911,-1.5737590716605014e-06,0
598,0.0042153047989623715,-0.0018984964804926957,-0.0018733373111468408,-2.5159169345854906e-05,0
599,0.008564126039520836,0.0010652037868621172,0.0009844658767376134,8.073791012450375e-05,0
600,0.008983749141679986,0.0013225924534961088,0.0012936591091924322,2.8933344303676582e-05,0
601,0.00951781490806436,0.0017197439503596813,0.0017641694468021004,-4.442549644241914e-05,0
602,0.004634927901121522,-0.0016057306981555213,-0.0015128689844908511,-9.286171366467018e-05,0
603,0.003490501258869294,-0.002377543231185691,-0.002297265645024575,-8.027758616111587e-05,0
604,0.0018120088502326936,-0.003625114337504688,-0.0035354765131502116,-8.963782435447622e-05,0
605,0.005474174105439822,-0.0012818796751965498,-0.0012171039431871716,-6.477573200937823e-05,0
606,0.008373388265812132,0.0004746753425584605,0.00045157779786251113,2.3097544695949396e-05,0
607,0.01165407797360185,0.0025250085491633294,0.00248742986900115,3.7578680162179533e-05,0
608,0.015850308995193352,0.005333873276412722,0.005309747820595159,2.4125455817563222e-05,0
609,0.009212634470130432,0.0007842664375943652,0.0007722748892238454,1.1991548370519824e-05,0
610,0.007991912718394723,7.647348720531308e-05,4.292243312461299e-05,3.355105408070009e-05,0
611,0.0007438773174639479,-0.004844959828593591,-0.004876159291492251,3.119946289866036e-05,0
612,0.007305256733043386,-0.0002816037910629196,-0.00026394706639661406,-1.765672466630554e-05,0
613,0.006389715419241604,-0.0009631993111675736,-0.0009546904206040538,-8.5088905635198e-06,0
614,0.010585946440833105,0.0019097182740648341,0.0019763803405141367,-6.666206644930254e-05,0
615,0.011501487754634887,0.0025770998900944537,0.0025438188518575227,3.3281038236931005e-05,0
616,0.010585946440833105,0.0020848856572152456,0.0020323852540212266,5.2500403194019e-05,0
617,0.005321583886472858,-0.0013534308881234353,-0.001454613795016322,0.00010118290689288675,0
618,0.006313420309758122,-0.0004497357580601361,-0.0005216378928978415,7.190213483770544e-05,0
619,0.0060845349813076766,-0.0004093907589952938,-0.00045827777234728714,4.888701335199335e-05,0
620,0.008983749141679986,0.0018171547228634807,0.0017015606908914924,0.00011559403197198832,0
621,0.008602273594262577,0.001829477707854847,0.0018313831727380986,-1.905464883251648e-06,0
622,0.00539787899595634,-5.352733485747479e-05,-2.064935660835632e-05,-3.287797824911847e-05,0
623,0.0075341420614938315,0.0018082855298386814,0.0017872582585794295,2.102727125925189e-05,0
624,0.003566796368352776,-0.0005342594070371599,-0.0006078371860632396,7.357777902607977e-05,0
625,0.002956435492484921,-0.0005523483167970202,-0.0005476018362697169,-4.746480527303303e-06,0
626,0.0005912870984969842,-0.0018355596653407225,-0.0018809497999266204,4.539013458589795e-05,0
627,0.0013542381933318026,-0.0010189423662810887,-0.00098846301529868,-3.047935098240864e-05,0
628,0.004329747463187594,0.001287196041798069,0.0013390795168905587,-5.1883475092489835e-05,0
629,0.004787518120088485,0.0018617972342685586,0.0019314300807954353,-6.963284652687662e-05,0
630,0.0009727626459143934,-0.0005037878734979036,-0.0005512198181024362,4.743194460453263e-05,0
631,-0.0019264515144579164,-0.0022756623372636765,-0.0022908650578799725,1.5202720616295986e-05,0
632,0.0015068284122987663,0.0002662223932671365,0.00025017642402709323,1.6045969240043273e-05,0
633,-0.00017166399633783413,-0.0007958479103967796,-0.0007171406587145955,-7.870725168218412e-05,0
634,0.0005912870984969842,-0.00021231652863364428,-0.00013685003571110285,-7.546649292254143e-05,0
635,-0.0018501564049744346,-0.0019176166390410011,-0.001893571949492233,-2.4044689548768103e-05,0
636,-0.002613107499809253,-0.0025607774986699055,-0.0025176186547139134,-4.315884395599207e-05,0
637,0.002040894178683139,0.0004529478040687973,0.0005568456266995818,-0.0001038978226307845,0
638,-0.00040054932478827965,-0.0015193777765025284,-0.0015182311659253326,-1.1466105771958373e-06,0
639,-0.001621271076523989,-0.002728450025634175,-0.0027100066953298866,-1.8443330304288193e-05,0
640,0.005016403448538931,0.0014313011531756118,0.0015050661183266816,-7.376496515106978e-05,0
641,0.006923781185625977,0.0023139145546467936,0.0023103053208763107,3.60923377048291e-06,0
642,0.005931944762340713,0.001243837978001981,0.0012282615285231573,1.5576449478823737e-05,0
643,0.0014305333028152845,-0.0022504742170346187,-0.002227373464180138,-2.310075285448087e-05,0
644,-0.0007820248722056888,-0.0042506035089222025,-0.004280215185329758,2.9611676407555534e-05,0
645,0.0036430914778362578,-0.0017898693655601014,-0.0018017032757337722,1.1833910173670746e-05,0
646,0.006313420309758122,-0.0006434164534826235,-0.0006699841218370595,2.656766835443605e-05,0
647,0.012111848630502742,0.002667015396066433,0.002693775409624428,-2.676001355799481e-05,0
648,0.015163653009842015,0.004169285133006886,0.00418708728365619,-1.7802150649303718e-05,0
649,0.011043717097733996,0.000829572585318668,0.0008032079770267537,2.636460829191431e-05,0
650,0.00997558556496525,-0.00032264698309099864,-0.0003684106954386934,4.576371234769476e-05,0
651,0.005092698558022413,-0.004148102150567221,-0.004214541817055437,6.643966648821591e-05,0
652,0.015163653009842015,0.002353342570873807,0.002349566484283146,3.7760865906608966e-06,0
653,0.015316243228808977,0.002023576558005518,0.0020270038699069367,-3.4273119014186122e-06,0
654,0.018062867170214325,0.0036255854104317808,0.0036632922279799984,-3.770681754821769e-05,0
655,0.01409552147707327,0.0007038863910586812,0.0005945992753611433,0.00010928711569753793,0
656,0.011959258411535778,-0.0008733959489903452,-0.0009591428221693115,8.574687317896635e-05,0
657,0.010585946440833105,-0.0019218956663552978,-0.0019424073118689694,2.0511645513671562e-05,0
658,0.012188143739986224,-0.0009342790720797922,-0.000918663135147014,-1.561593693277818e-05,0
659,0.013942931258106306,0.00015341981774354455,0.00019453744364806197,-4.111762590451742e-05,0
660,0.015545128557259423,0.0011749965857144524,0.0011545301043692868,2.0466481345165566e-05,0
661,0.021038376440070117,0.005010106169009464,0.005009608171710192,4.979972992721557e-07,0
662,0.015392538338292459,0.0012831036082390718,0.0013269218159791454,-4.381820774007356e-05,0
663,0.01493476768139157,0.0012804350340943277,0.0013386135940077356,-5.817855991340783e-05,0
664,0.009288929579613914,-0.0022775129419939154,-0.0022681499444911495,-9.36299750276589e-06,0
665,0.010280766002899178,-0.0012553838046827162,-0.0012857929005115703,3.040909582885409e-05,0
666,0.010280766002899178,-0.0009633880876038189,-0.0010185101107437176,5.512202313989875e-05,0
667,0.010585946440833105,-0.0004831537581828186,-0.0004711367217750673,-1.2017036407751289e-05,0
668,0.012645914396887115,0.0012193605805926595,0.00127662574140166,-5.7265160809000584e-05,0
669,0.0070763714045929405,-0.002365586828684083,-0.0023612678669294443,-4.318961754638719e-06,0
670,0.007839322499427759,-0.0016031630896587497,-0.001526425226941923,-7.67378627168267e-05,0
671,0.010738536659800069,0.0005958121229398864,0.0005757763021961233,2.0035820743763053e-05,0
672,0.014019226367589788,0.003094271612599546,0.003111292786530438,-1.70211739308917e-05,0
673,0.012340733958953187,0.002253437796772689,0.002199282636972909,5.415515979977992e-05,0
674,0.012188143739986224,0.0025827912804316264,0.0025382458589564643,4.4545421475162064e-05,0
675,0.00913633936064695,0.0009904626292777383,0.0009545024278688293,3.5960201408909e-05,0
676,-0.0003242542153047978,-0.0050563943080487355,-0.00499508980483076,-6.130450321797584e-05,0
677,0.0007438773174639479,-0.0039435835823915895,-0.0038797900546850674,-6.379352770652207e-05,0
678,-9.53688868543523e-05,-0.004345532474571392,-0.004315701229466746,-2.983124510464591e-05,0
679,0.004100862134737149,-0.0014110936153474349,-0.0014716719452498336,6.0578329902398736e-05,0
680,0.012569619287403633,0.004451890685829073,0.004382333801374497,6.955688445457655e-05,0
681,0.016384374761577725,0.007236387743967397,0.007203590480222637,3.279726374475975e-05,0
682,0.010051880674448732,0.0032091683459380695,0.0032139059023622014,-4.737556424131914e-06,0
683,0.0037956816968032214,-0.0006365631964896615,-0.0006395288800564126,2.9656835667511185e-06,0
684,-0.0026894026092927348,-0.004684244099602839,-0.0047521410514427265,6.789695183988774e-05,0
685,-0.0012397955291065799,-0.003387900710649799,-0.003392385156505722,4.48444585592284e-06,0
686,0.0018883039597161755,-0.001082656209251931,-0.0010771700170995708,-5.4861921523602884e-06,0
687,0.002117189288166621,-0.0008818219676084036,-0.0007872320105704884,-9.458995703791524e-05,0
688,0.002040894178683139,-0.0009584812865764199,-0.0008128421995641362,-0.0001456390870122837,0
689,0.004634927901121522,0.0007708458732776949,0.0008205501433894947,-4.970427011179981e-05,0
690,0.00539787899595634,0.001224641538322395,0.0011126441716246417,0.00011199736669775329,0
691,0.0037193865873197396,-4.6317818562177795e-06,-0.00017451755209783334,0.00016988577024161554,0
692,0.007305256733043386,0.002434501227006916,0.002375560842179638,5.894038482727763e-05,0
693,0.0033379110399023304,-0.0003406092493932069,-0.00026808837814014033,-7.252087125306656e-05,0
694,0.0042534523537041125,0.00027161109858089713,0.00041759714074728863,-0.0001459860421663915,0
695,0.005321583886472858,0.0009805646057550286,0.0010336640695221243,-5.309946376709572e-05,0
696,-0.0016975661860074709,-0.003960916102726993,-0.003979827524064844,1.891142133785082e-05,0
697,-0.0024605172808422893,-0.004705620790519394,-0.004720994440595166,1.5373650075772675e-05,0
698,-0.003147173266193626,-0.0056157491713272915,-0.0055991187298629905,-1.6630441464300996e-05,0
699,0.0032616159304188486,-0.0018032502358595946,-0.0017897799439739897,-1.3470291885604897e-05,0
700,0.011997405966277519,0.003558505503475206,0.003570042690466384,-1.1537186991178016e-05,0
701,0.020618753337910967,0.008994056000851939,0.009006585924989501,-1.252992413756232e-05,0
702,0.01573586633096813,0.005352154291042604,0.005382868342928145,-3.0714051885541264e-05,0
703,0.007724879835202537,-0.0002456282975998971,-0.0002207798157354686,-2.4848481864428516e-05,0
704,0.0010872053101396162,-0.004883230915465955,-0.004934322208870093,5.109129340413743e-05,0
705,0.003910124361028444,-0.0030899612177883356,-0.0031327805958008123,4.281937801247672e-05,0
706,0.00993743801022351,0.0008232396591393018,0.0007600425030911377,6.319715604816405e-05,0
707,0.009403372243839137,0.00017645017088597056,0.00019459603692762874,-1.8145866041658184e-05,0
708,0.012149996185244483,0.001844154727917798,0.0018955592989867939,-5.1404571068995814e-05,0
709,0.010013733119706991,0.0001745946285591266,0.000260745706881323,-8.615107832219641e-05,0
710,0.011997405966277519,0.001409853493600524,0.0015043525254154015,-9.449903181487761e-05,0
711,0.007648584725719055,-0.0017255278349288588,-0.0018368754011550276,0.00011134756622616874,0
712,0.012226291294727964,0.001334618668276059,0.001265671031556054,6.894763672000482e-05,0
713,0.01283665217059582,0.0016810955886955577,0.001690663167098202,-9.567578402644395e-06,0
714,0.01245517662317841,0.0014157835942511375,0.0014768145493011034,-6.103095504996587e-05,0
715,0.01245517662317841,0.0014903922572169427,0.001503467262101159,-1.3075004884216274e-05,0
716,0.010624093995574846,0.00035596231606541996,0.00036949520973826523,-1.3532893672845272e-05,0
717,0.006809338521400754,-0.0021443272867963043,-0.0022117390015105884,6.741171471428414e-05,0
718,0.005588616769665045,-0.0029089022721664865,-0.00297814584350463,6.924357133814354e-05,0
719,0.008945601586938245,-0.0005803893967651621,-0.0005554072204354352,-2.498217632972697e-05,0
720,0.01161593041886011,0.0012491591738861792,0.0012902324699301776,-4.107329604399832e-05,0
721,0.015506981002517684,0.003994915601658325,0.004021318112032857,-2.640251037453259e-05,0
722,0.006961928740367718,-0.0018028825892684168,-0.0017712402184049245,-3.164237086349239e-05,0
723,0.006046387426565936,-0.0023244759561821767,-0.00233039400457411,5.9180483919334115e-06,0
724,0.005283436331731117,-0.0028369431520423676,-0.0028675953020094297,3.065214996706214e-05,0
725,0.010471503776607882,0.0007020545273119396,0.0007039922919975308,-1.9377646855912476e-06,0
726,0.013065537499046265,0.002451321985976252,0.0023427501203399344,0.00010857186563631742,0
727,0.012912947280079301,0.002377742392394709,0.0022998949616251105,7.784743076959862e-05,0
728,0.011463340199893146,0.0014930115249668838,0.0014616911124682378,3.1320412498645964e-05,0
729,0.006427862973983345,-0.001847903672225712,-0.0018393944042811839,-8.509267944528187e-06,0
730,0.005283436331731117,-0.0025474553702625555,-0.002530212372653926,-1.7242997608629598e-05,0
731,0.0037575341420614805,-0.0036326323887238584,-0.0036249823699603507,-7.65001876350778e-06,0
732,0.008258945601586909,-0.0006556517127805283,-0.0006624278852212155,6.776172440687168e-06,0
733,0.0095559624628061,3.9835578031907116e-05,-1.615716114545708e-05,5.5992739177364196e-05,0
734,0.011921110856794037,0.001482644022794777,0.0014448955165214366,3.77485062733403e-05,0
735,0.010852979324025291,0.0005816921618129929,0.0005270898184198601,5.460234339313278e-05,0
736,0.012760357061112337,0.0017952860531965389,0.001783562614773424,1.1723438423114812e-05,0
737,0.015201800564583756,0.003465482983972328,0.003410808261838271,5.467472213405676e-05,0
738,0.005970092317082454,-0.0028948392073175817,-0.002983067909083781,8.82287017661995e-05,0
739,0.00665674830243379,-0.0024177542301088762,-0.002494751953573197,7.699772346432066e-05,0
740,0.009479667353322618,-0.0005393861323077377,-0.0005114883648759816,-2.789776743175609e-05,0
741,0.013904783703364565,0.002446356623691499,0.002553616337021645,-0.000107259713330146,0
742,0.009632257572289582,-0.0005546851438443278,-0.0005318532173188403,-2.2831926525487475e-05,0
743,0.011768520637827073,0.0009213146663203358,0.0009377744036375186,-1.6459737317182812e-05,0
744,0.008945601586938245,-0.0010342955488276467,-0.001095055144617645,6.0759595789998356e-05,0
745,0.010471503776607882,2.0526772602803643e-05,-3.069416924090134e-05,5.1220941843704984e-05,0
746,0.010242618448157437,-0.00014967795768887552,-0.00024314007482913533,9.346211714025981e-05,0
747,0.011844815747310555,0.0009615398354501754,0.0009304925572599591,3.104727819021628e-05,0
748,0.01077668421454181,0.00024496866644669875,0.000185159857991703,5.9808808454995746e-05,0
749,0.013370717936980192,0.0021097888596273064,0.0021400532059078475,-3.0264346280541032e-05,0
750,0.011844815747310555,0.0011784513611599555,0.0011770372774387258,1.4140837212297478e-06,0
751,0.0065804531929503085,-0.0023220637028542822,-0.002282124136292324,-3.993956656195806e-05,0
752,0.00665674830243379,-0.0021756148276842117,-0.0020168203656004777,-0.00015879446208373399,0
753,0.008869306477454764,-0.0006223041982474249,-0.0004340486625958674,-0.00018825553565155753,0
754,0.00993743801022351,0.0001054165054584861,0.0001811615568684598,-7.574505140997369e-05,0
755,0.011310749980926182,0.0010572322658088122,0.001126343882930157,-6.911161712134487e-05,0
756,0.010700389105058328,0.0006710399137487208,0.000653626138313434,1.7413775435286814e-05,0
757,0.01161593041886011,0.0013926970205254718,0.0013084823513141754,8.42146692112964e-05,0
758,0.006504158083466827,-0.0020422952803355312,-0.0022190822060203317,0.00017678692568480047,0
759,0.0061226825360494175,-0.002237304671255066,-0.0022775554365672052,4.0250765312139104e-05,0
760,0.0074959945067520906,-0.0012865057240031132,-0.0011190365174383037,-0.00016746920656480948,0
761,0.006733043411917272,-0.001876549555560369,-0.0016696010334378896,-0.00020694852212247935,0
762,0.008030060273136463,-0.001088625072467389,-0.0008686368398323699,-0.00021998823263501917,0
763,0.009861142900740028,4.324711857751553e-05,0.0002951389258645796,-0.00025189180728706404,0
764,0.008030060273136463,-0.0013722292572620367,-0.001411990051122511,3.976079386047433e-05,0
765,0.010852979324025291,0.0004385138035515244,0.00042373628370526834,1.4777519846256046e-05,0
766,0.010852979324025291,0.0003133242114329171,0.0003585036541881366,-4.5179442755219487e-05,0
767,0.012760357061112337,0.0015667755073325198,0.0016658770737523287,-9.910156641980894e-05,0
768,0.011997405966277519,0.001045603229510219,0.0011689365709055763,-0.0001233333413953573,0
769,0.0074959945067520906,-0.002018592790725114,-0.0019993956980606828,-1.9197092664431127e-05,0
770,0.0070382238498511995,-0.0022969552044540638,-0.002309551538341683,1.2596333887619077e-05,0
771,0.005054551003280672,-0.0037023782917210185,-0.0037833284203874795,8.095012866646094e-05,0
772,0.006961928740367718,-0.0024906895622913853,-0.0023920167136241995,-9.867284866718574e-05,0
773,0.012073701075761,0.0009161248179740693,0.0011677909923195609,-0.0002516661743454916,0
774,0.019703212024109185,0.006190515740214597,0.0067223697562441695,-0.0005318540160295726,0
775,0.018101014724956066,0.005326667573602531,0.00579625289184736,-0.0004695853182448287,0
776,0.01245517662317841,0.0019301255871657448,0.002282190956658699,-0.00035206536949295396,0
777,0.009861142900740028,0.0008326096784091259,0.0009470619535048338,-0.00011445227509570795,0
778,0.006427862973983345,-0.00074182375011176,-0.0008542591854703773,0.00011243543535861735,0
779,0.008945601586938245,0.0018984089406717548,0.0016978857473791294,0.00020052319329262537,0
780,0.004749370565346744,-1.7739469976900537e-05,-0.00035056822788753035,0.00033282875791062984,0
781,0.009861142900740028,0.004657339982761121,0.004261662605576641,0.0003956773771844795,0
782,0.00665674830243379,0.003759170119741728,0.003347552172721302,0.000411617947020426,0
783,0.010090028229190473,0.007725484433978693,0.007532247124092344,0.00019323730988634897,0
784,0.006427862973983345,0.007083782746747389,0.007020122237919071,6.366050882831813e-05,0
785,-0.0019645990691996573,0.0034485802557234504,0.0034767269755277812,-2.8146719804330884e-05,0
786,-0.007610437170977313,0.00188740107694357,0.0016970760196251718,0.00019032505731839816,0
787,-0.012417029068436669,0.0009740693247256816,0.0006080164651119588,0.0003660528596137228,0
788,-0.014248111696040233,0.0021443325284348086,0.0015629667113260227,0.0005813658171087859,0
789,-0.016002899214160315,0.003391705969922352,0.002927236087157184,0.00046446988276516816,0
790,-0.024013885709926092,0.00030529874962461137,-8.240250561611183e-05,0.0003877012552407232,0
791,-0.030117494468604643,-0.0015467437161737524,-0.0021056392589208165,0.0005588955427470641,0
792,-0.027904936293583666,0.0022262183950894575,0.001466245633407289,0.0007599727616821685,0
793,-0.027904936293583666,0.004379023562624244,0.0034152583586883256,0.0009637652039359186,0
794,-0.030193789578088125,0.004925583943792057,-0.012526538565028231,0.01745212250882029,0
795,-0.03759441519798586,0.001883705961862702,-0.008191914820022085,0.010075620781884786,0
796,-0.04362172884718093,-0.0003573560164199063,-0.0006020275259583847,0.0002446715095384784,0
797,-0.05132753490501259,-0.004062030910275763,0.0020697084058511504,-0.0061317393161269135,0
798,-0.0675783932249944,-0.014230740858737245,-0.005037055578825953,-0.009193685279911292,0
799,-0.06414511329823773,-0.01152762584753796,-0.0009525315293649195,-0.01057509431817304,0
800,-0.06296253910124376,-0.011234210813997378,-0.0021183528046461054,-0.009115858009351272,0
801,-0.05701152056153199,-0.008425437177722449,-0.0005214866730312347,-0.007903950504691214,0
802,-0.0473220416571298,-0.0037054669369711705,0.0019464429987333513,-0.005651909935704522,0
803,-0.038776989394979824,-0.0002929402064974283,0.0036627572203498013,-0.00395569742684723,0
804,-0.03961623559929813,-0.003812401746605652,0.0007057054590398162,-0.004518107205645468,0
805,-0.0468642710002289,-0.01231718584980885,-0.0016563131948173493,-0.0106608726549915,0
806,-0.04747463187609676,-0.017007088771563404,-0.0014183762373348539,-0.01558871253422855,0
807,-0.03435187304493788,-0.01308405383960995,0.008495862030800855,-0.021579915870410804,0
808,-0.030460822461280308,-0.01644981968201393,0.011274751090977232,-0.02772457077299116,0
809,-0.029926756694895935,-0.02308459405949439,0.006791063351693473,-0.02987565741118786,0
810,-0.008945601586938245,-0.016524483748218032,0.009315967553487375,-0.025840451301705408,0
811,0.012188143739986224,-0.010650798731187851,0.006212774269474313,-0.016863573000662165,0
812,0.03660257877470041,-0.00294076622117147,0.005072784682046063,-0.008013550903217533,0
813,0.06910429541466404,0.010389418239085476,0.009231140832974315,0.0011582774061111613,0
814,0.10526817730983444,0.026889624135629505,0.020503616781711198,0.006386007353918307,0
815,0.09908827344167241,0.015082283304124115,0.010408625877888409,0.004673657426235706,0
816,0.0818455786984055,-0.0035380375284673805,-0.0018777053763217462,-0.0016603321521456342,0
817,0.08657587548638138,-0.006545677821528471,-0.002420449047354693,-0.004125228774173778,0
818,0.09603646906233314,-0.006105246956521853,-0.0038279610592915625,-0.0022772858972302905,0
819,0.11968795300221269,0.004490254790848545,0.00023539498541679145,0.004254859805431753,0
820,0.15150301365682461,0.02152153678337837,0.008492023647552626,0.013029513135825744,0
821,0.1611924925612268,0.02452728299495362,0.008579629003899924,0.015947653991053697,0
822,0.1537155718318456,0.017152081846357345,0.002806929196023914,0.014345152650333431,0
823,0.15142671854734113,0.014781224845958922,0.002010538404652016,0.012770686441306906,0
824,0.1376935988403144,0.005664911908322891,-0.007880526916444025,0.013545438824766916,0
825,0.16447318226901653,0.025847369364342874,0.005600643014104949,0.020246726350237925,0
826,0.16851682307164106,0.03183304814478824,0.005064508551782809,0.02676853959300543,0
827,0.15760662241550316,0.02930958402101253,0.00404019843061159,0.025269385590400942,0
828,0.13525215533684298,0.020587119619881005,0.0021393946905077614,0.018447724929373244,0
829,0.1109140154116121,0.011865661000987895,0.0019379744947793862,0.009927686506208509,0
830,0.0747501335164417,-0.004202970646795642,-0.007489813583121349,0.003286842936325707,0
831,0.056439307240406064,-0.007577136980095803,-0.007179448625326146,-0.00039768835476965744,0
832,0.0470550087739378,-0.004743648314063542,-0.003847024070693414,-0.0008966242433701282,0
833,0.03606851300831604,-0.0030457603647831375,-0.0035061869770704347,0.00046042661228729714,0
834,0.026379034103913845,-0.0004573843348243049,-0.002149610546216884,0.001692226211392579,0
835,0.012493324177920151,-0.000797386128709175,-0.002643161732975455,0.0018457756042662798,0
836,-0.006351567864499863,-0.004692030915877314,-0.005333192837337788,0.0006411619214604742,0
837,-0.02107652399481204,-0.006017215887108162,-0.0030535132606615734,-0.002963702626446589,0
838,-0.039311055161364204,-0.010252308757032164,-0.004426786801677695,-0.005825521955354469,0
839,-0.05502784771496146,-0.01342073416262377,-0.005508844966350899,-0.007911889196272871,0
840,-0.06876096742198838,-0.016094339098096187,-0.0052275072992238585,-0.010866831798872328,0
841,-0.07639047837033656,-0.015551777913299857,-0.0029629857605033803,-0.012588792152796477,0
842,-0.08340962844281688,-0.01566447875022942,-0.002598008260499534,-0.013066470489729885,0
843,-0.09317540245670257,-0.018822519836188226,-0.006481720761583643,-0.012340799074604582,0
844,-0.09653238727397577,-0.018760371163984817,-0.008083746106706638,-0.010676625057278179,0
845,-0.09294651712825211,-0.015107198081020663,-0.0051004590218484,-0.010006739059172263,0
846,-0.0917257953765164,-0.014227061537961065,-0.005792698753915061,-0.008434362784046004,0
847,-0.0824940871290151,-0.00878884399596155,-0.0018909788725117171,-0.006897865123449833,0
848,-0.07158388647287721,-0.002972996928122431,0.0032425701755678053,-0.006215567103690236,0
849,-0.06509880216678125,-0.000776762776898939,0.003921381575166573,-0.004698144352065512,1
850,-0.06258106355382635,-0.0017473934396361106,0.002838114603769002,-0.004585508043405112,0
851,-0.05746929121843288,-0.0012856761899175942,-7.389472655325042e-05,-0.0012117814633643437,0
852,-0.0502212558175021,0.0003482081860272541,0.00020397748308726308,0.00014423070293999104,0
853,-0.043965056839856596,0.0010722910708300046,-0.0004903595134187191,0.0015626505842487237,0
854,-0.033131151293202175,0.004864014635350622,0.002008099620416484,0.002855915014934138,0
855,-0.027180132753490592,0.005291714744557802,0.003466352335491015,0.001825362409066787,0
856,-0.023594262607766946,0.0041766083671136295,0.002040605102600003,0.0021360032645136263,0
857,-0.013065537499046265,0.008032116486401761,0.006765158203251796,0.0012669582831499656,0
858,-0.012912947280079301,0.004910380989985464,0.0013584569744699497,0.0035519240155155144,0
859,-0.006809338521400754,0.006153857975521781,0.0022873362659233012,0.0038665217095984797,0
860,-0.0027656977187762166,0.006222739370960184,0.0017631809776394187,0.0044595583933207655,0
861,0.001201647974364839,0.006531696523328044,0.0022785268455675373,0.004253169677760507,0
862,0.0031853208209353667,0.005774090522437434,0.00312966261862356,0.0026444279038138744,0
863,0.0051689936675058945,0.00532279569059029,0.0028730532061452428,0.002449742484445047,0
864,0.0019645990691996573,0.0015322815073237064,-0.000836350577885189,0.0023686320852088954,0
865,0.0019645990691996573,0.00013463573255424497,-0.0028838208629616236,0.0030184565955158685,0
866,0.008678568703746059,0.003539017203050585,0.0001175520505947358,0.003421465152455849,0
867,0.012569619287403633,0.0052104827964500056,0.0017837835307374927,0.003426699265712513,0
868,0.012645914396887115,0.0045295715530047865,0.0022576677877592308,0.0022719037652455558,0
869,0.013866636148622824,0.004945991166240473,0.004940468595168435,5.522571072037741e-06,0
870,0.00829709315632865,0.0009120098923208909,0.002013566667723137,-0.001101556775402246,0
871,0.003490501258869294,-0.002453332495661293,-0.0026022169322397854,0.00014888443657849228,0
872,0.005855649652857231,-0.0008066378778578735,-0.0020132207611340764,0.001206582883276203,0
873,0.00249866483558403,-0.0031255732377280057,-0.004487696994960664,0.0013621237572326588,0
874,0.004787518120088485,-0.0015452537858207562,-0.00301993417467795,0.001474680388857194,0
875,0.005855649652857231,-0.0008194711779366865,-0.0015665623593917619,0.0007470911814550753,0
876,0.00951781490806436,0.0017510790824239817,0.0021769023044365533,-0.0004258232220125716,0
877,0.0051689936675058945,-0.0011664451032830294,0.00033813924639277695,-0.0015045843496758063,0
878,0.004940108339055449,-0.0011976924187497406,0.00048781001292500653,-0.0016855024316747471,0
879,0.006160830090791158,-0.00022327647688708026,0.00039494049630633976,-0.00061821697319342,0
880,0.006160830090791158,-8.05139298577351e-05,-0.00018201654379488902,0.00010150261393715391,0
881,0.006847486076142495,0.0005679909001909584,0.00027606046374518755,0.0002919304364457709,0
882,0.007610437170977313,0.001316143623796084,0.0014225534275646248,-0.00010640980376854067,0
883,0.0042534523537041125,-0.000752018534357634,1.2033699852380527e-05,-0.0007640522342100145,0
884,-0.0014686808575570254,-0.004499474590745625,-0.0034056061278337005,-0.0010938684629119245,0
885,-0.0003242542153047978,-0.0036169407046113705,-0.0025253851742285923,-0.0010915555303827782,0
886,0.002574959945067512,-0.001652595020026659,-0.001635879454747333,-1.6715565279325998e-05,0
887,0.005855649652857231,0.0005149318030419366,0.0008913350934749498,-0.00037640329043301323,0
888,0.008525978484779095,0.002284270320392829,0.00151435107047041,0.0007699192499224191,0
889,0.007228961623559904,0.0013785334707811234,0.00031158921289776336,0.00106694425788336,0
890,0.00623712520027464,0.00075522274938677,0.001510122538501958,-0.0007548997891151879,0
891,0.003566796368352776,-0.0010039346624421885,0.001192524251754807,-0.0021964589141969955,0
892,0.003566796368352776,-0.0009263699667778595,0.00011175924753858816,-0.0010381292143164477,0
893,0.0032616159304188486,-0.0010970436249423327,-0.0008139285266989528,-0.0002831150982433799,0
894,0.005550469214923304,0.0005075876499954816,-0.00024731425060535667,0.0007549019006008383,0
895,0.0047112230106050035,-5.826910203170645e-05,-0.0012824326510917762,0.0012241635490600697,0
896,0.00455863279163804,-0.00014627343718008398,-0.00018525820179519416,3.898476461511018e-05,0
897,0.0015831235217822481,-0.0022233121213358093,-0.0015310520211535138,-0.0006922601001822955,0
898,-0.0009346150911726525,-0.004079457944274834,-0.0032796774451811376,-0.0007997804990936969,0
899,0.005321583886472858,3.6650257619151384e-05,-0.0001423499705165865,0.00017900022813573788,0
900,0.01035706111238266,0.003293597800173819,0.004266984163768212,-0.0009733863635943934,0
901,0.010585946440833105,0.003317346645521482,0.0028030074577658336,0.0005143391877556482,0
902,0.006923781185625977,0.0007514741874205137,0.00016522921241448718,0.0005862449750060265,0
903,0.007305256733043386,0.0010496540097073772,0.00130668682901619,-0.00025703281930881277,0
904,0.0038719768062867033,-0.001286350976185127,-0.0008587353649646759,-0.0004276156112204511,0
905,0.0023460746166170665,-0.002344741909665319,-0.0012034061506355598,-0.0011413357590297595,0
906,0.0024223697261005483,-0.0023844090964929543,-0.0036200331854450577,0.0012356240889521033,0
907,0.006618600747692049,0.00035985326295895196,0.00044247399574317767,-8.26207327842257e-05,0
908,0.010280766002899178,0.0027443512113971393,0.002663163510220418,8.118770117672121e-05,0
909,0.007686732280460796,0.0008610348193307844,0.001266789352685032,-0.0004057545333542475,0
910,0.006618600747692049,8.763718562131271e-05,5.341636743133929e-06,8.229554887817879e-05,0
911,0.00165941863126573,-0.0034062385597884715,-0.0027249968251042813,-0.0006812417346841902,0
912,0.007991912718394723,0.0008765486620624265,0.0006979265958143232,0.00017862206624810327,0
913,0.005550469214923304,-0.0009498143723465597,-0.0022119226291163452,0.0012621082567697856,0
914,0.009441519798580877,0.0016296219380051004,0.0017162734219285985,-8.665148392349815e-05,0
915,0.009060044251163468,0.0012893122272211305,0.0018365504063432834,-0.0005472381791221529,0
916,0.005703059433890267,-0.0010762991721878215,-0.0009000535748692328,-0.0001762455973185887,0
917,0.007763027389944278,0.0003153360566472233,0.0004199027466084709,-0.00010456668996124759,0
918,0.004100862134737149,-0.002287865264348991,-0.0022379030391272373,-4.996222522175376e-05,0
919,0.005245288776989376,-0.0016151740215436168,-0.0010678485495058876,-0.0005473254720377292,0
920,0.008220798046845168,0.0002761208715945167,-1.2343194647912263e-05,0.00028846406624242896,0
921,0.011272602426184442,0.002237451960182104,0.0013980049106661016,0.0008394470495160025,0
922,0.012722209506370596,0.0031768530403528932,0.0027806583784489567,0.0003961946619039365,0
923,0.009594110017547841,0.0010486784109048223,0.0013744105273477602,-0.000325732116442938,0
924,0.003948271915770185,-0.002793612873215714,-0.0028827987352868234,8.918586207110925e-05,0
925,0.007610437170977313,-0.0002223216503204288,1.8054513223500306e-05,-0.0002403761635439291,0
926,0.008525978484779095,0.0004203801680946339,0.0004371307631118086,-1.6750595017174692e-05,0
927,0.007763027389944278,-8.813709916256824e-05,-6.027553316858667e-05,-2.786156599398157e-05,0
928,0.009212634470130432,0.000959882083370069,0.0005485471525081434,0.0004113349308619256,0
929,0.008373388265812132,0.0004538665056444858,0.00017836930129627737,0.0002754972043482084,0
930,0.008068207827878204,0.0003520571810204027,0.0003772921684004011,-2.523498737999841e-05,0
931,0.007610437170977313,0.0001685800238249384,0.0005696503784809544,-0.00040107035465601593,0
932,0.008602273594262577,0.0010183197255927204,0.0014514310630889997,-0.0004331113374962793,0
933,0.00791561760891124,0.000742813744215922,7.167239355775957e-05,0.0006711413506581624,0
934,0.006008239871824195,-0.00035088422626558367,-0.0009584246859695648,0.0006075404597039812,0
935,0.004482337682154558,-0.0011887716414257293,-0.0014354557396408358,0.00024668409821510646,0
936,0.005779354543373749,-9.76749477373752e-05,0.0009342401037251624,-0.0010319150514625376,0
937,0.004024567025253667,-0.0011529724766559282,-0.0008068471087681148,-0.0003461253678878134,0
938,0.003948271915770185,-0.0010853563929216813,-0.0009974972190445648,-8.785917387711651e-05,0
939,0.003948271915770185,-0.001017153174720672,-0.001085946247614265,6.879307289359301e-05,0
940,0.008525978484779095,0.002209567616134837,0.0018078204156422592,0.0004017472004925779,0
941,0.007381551842526868,0.0015095949688217628,0.001437255785141931,7.23391836798318e-05,0
942,0.003566796368352776,-0.0010082767225991609,-0.0012685057409292696,0.00026022901833010876,0
943,0.0037956816968032214,-0.0007451316096504711,-0.0008901151204456456,0.0001449835107951745,0
944,0.006313420309758122,0.0010788732286246526,0.0013616706444014625,-0.0002827974157768099,0
945,0.002117189288166621,-0.0017713699581478298,-0.0009278355187830465,-0.0008435344393647833,0
946,0.0007438773174639479,-0.002730281728795302,-0.0023649971296006295,-0.0003652845991946726,0
947,0.00455863279163804,-0.00017918833237020047,-0.0004403324700112046,0.0002611441376410041,0
948,0.006542305638208568,0.0010713670453701243,0.0006577869721989037,0.0004135800731712206,0
949,0.0070763714045929405,0.0013448117433820619,0.0007568835924447359,0.0005879281509373259,0
950,0.0018883039597161755,-0.0023405452163795734,-0.002059846249486758,-0.0002806989668928156,0
951,0.004940108339055449,-0.00035010776830362444,-0.0001430997421034915,-0.00020700802620013295,0
952,0.0060845349813076766,0.00028830762211652373,0.0006472940631925155,-0.0003589864410759918,0
953,0.005855649652857231,-2.1436151945609153e-05,-0.00011223911430223571,9.080296235662656e-05,0
954,0.008525978484779095,0.0017049994660865715,0.0020618571347844955,-0.000356857668697924,0
955,0.009365224689097396,0.0022255544400340077,0.0022610626494525207,-3.550820941851298e-05,0
956,0.006160830090791158,1.098253642166367e-05,-0.0002834181271179941,0.0002944006635396578,0
957,0.0060845349813076766,-5.7334095881901365e-06,-0.0006615530550353668,0.0006558196454471767,0
958,0.0028038452735179575,-0.0022670167636986067,-0.002338252892860177,7.123612916157046e-05,0
959,0.003032730601968403,-0.002162978002375426,-0.00218973555006902,2.6757547693593686e-05,0
960,0.006389715419241604,4.30586759783484e-05,0.00011923297453168255,-7.617429855333416e-05,0
961,0.012340733958953187,0.004071276563970759,0.004573891972423237,-0.0005026154084524772,0
962,0.008068207827878204,0.0011068470314987786,0.0013945655800803257,-0.0002877185485815471,0
963,0.007839322499427759,0.0010268017704945839,0.0011024893590847861,-7.568758859020225e-05,0
964,0.002574959945067512,-0.0025389839672095853,-0.0024166469616765814,-0.00012233700553300388,0
965,0.004329747463187594,-0.0012909207399762306,-0.0008918721320140778,-0.0003990486079621528,0
966,0.011577782864118369,0.0037543882794761675,0.0031346431494812046,0.0006197451299949628,0
967,0.006160830090791158,8.058104737708021e-05,-0.0008962708785720485,0.0009768519259491287,0
968,0.005245288776989376,-0.0004326185285281969,-0.001217299200229678,0.000784680671701481,0
969,0.005474174105439822,-0.00016136430270566893,4.660217598894789e-05,-0.00020796647869461682,0
970,0.008449683375295614,0.0020286007547506875,0.0022884912062295544,-0.0002598904514788669,0
971,0.0037956816968032214,-0.0010457099008906764,-0.00023112606111879677,-0.0008145838397718797,0
972,0.0028801403830014394,-0.0015460183250746676,-0.0008398288016050661,-0.0007061895234696015,0
973,0.00036240177004653873,-0.003239663352997476,-0.0027802539245979333,-0.00045940942839954287,0
974,0.0051689936675058945,5.93881532081409e-05,-7.696949286652955e-05,0.00013635764607467044,0
975,0.009288929579613914,0.002874731637856384,0.0018129554240601128,0.0010617762137962714,0
976,0.0032616159304188486,-0.0013071787806653624,-0.0019799937499834098,0.0006728149693180474,0
977,0.007686732280460796,0.0017781955459222007,0.001629082067482342,0.00014911347843985867,0
978,0.0042534523537041125,-0.0005778777192830393,-0.00046731795533909274,-0.0001105597639439466,0
979,0.004787518120088485,-0.00018589576964116639,-0.00021412018745128024,2.822441781011385e-05,0
980,0.00020981155107957505,-0.003396735021864452,-0.0032838043649883694,-0.00011293065687608284,0
981,0.007991912718394723,0.0019020558305863464,0.0027713540702722335,-0.0008692982396858871,0
982,0.006923781185625977,0.0010644412030934541,0.0013863991942175717,-0.00032195799112411756,0
983,0.004787518120088485,-0.0004888331846246986,-0.000552435859352332,6.360267472763342e-05,0
984,0.0010490577553978753,-0.003198310067232756,-0.003395779802585986,0.00019746973535323016,0
985,0.0037956816968032214,-0.0015080669013837822,-0.001728324291441744,0.0002202573900579618,0
986,0.006771190966659013,0.00026968056011240167,-0.0004899064858129967,0.0007595870459253984,0
987,0.006618600747692049,-0.0001395967326681657,-0.0003015749194688981,0.0001619781868007324,0
988,0.010738536659800069,0.002439563599136634,0.002423911464762363,1.565213437427094e-05,0
989,0.00997558556496525,0.0017012533780252459,0.0023648361666613275,-0.0006635827886360816,0
990,0.008525978484779095,0.0005588543866413932,0.000969341778238374,-0.0004104873915969808,0
991,0.006923781185625977,-0.0006602415720593659,-0.0001988542056322224,-0.0004613873664271435,0
992,0.005855649652857231,-0.0015254937925746636,-0.0012088699561857551,-0.00031662383638890847,0
993,0.005779354543373749,-0.001751729159087135,-0.0025239121395840315,0.0007721829804968965,0
994,0.010738536659800069,0.0014880779760853067,0.0009597782865215437,0.0005282996895637631,0
995,0.011425192645151405,0.00180712555924869,0.0016018050925429405,0.0002053204667057495,0
996,0.008983749141679986,2.2318740488063088e-05,2.0120714622061078e-05,2.1980258660020096e-06,0
997,0.012111848630502742,0.00215592489997915,0.0023711676946983917,-0.00021524279471924184,0
998,0.010738536659800069,0.0012365039617704295,0.001677912269378541,-0.0004414083076081114,0
999,0.0070763714045929405,-0.0012256805106211483,-0.0007976637584137301,-0.00042801675220741813,0
1000,0.0061226825360494175,-0.0018339228638547408,-0.0015852437055752554,-0.00024867915827948535,0
1001,0.008869306477454764,7.94161820699775e-05,7.858845843341078e-05,8.277236365667221e-07,0
1002,0.0078774700541695,-0.0006209474769001507,-0.0008744331538357816,0.00025348567693563083,0
1003,0.011158159761959219,0.0016516325667465441,0.0018100772120225692,-0.0001584446452760251,0
1004,0.009632257572289582,0.000627848992418254,0.0005282794706631246,9.956952175512943e-05,0
1005,0.008869306477454764,0.00016878444734292475,1.6578878084190973e-05,0.00015220556925873378,0
1006,0.008487830930037354,-1.3188372740964784e-05,0.0003796026580967844,-0.0003927910308377492,0
1007,0.011997405966277519,0.002534227709842417,0.0027443164200371996,-0.00021008871019478252,0
1008,0.010852979324025291,0.0019270589031798535,0.0013701296231572817,0.0005569292800225718,0
1009,0.007953765163652982,0.00017026773348314734,1.1297296202731732e-05,0.0001589704372804156,0
1010,0.001163500419623098,-0.0043115253118029065,-0.0041738870431635286,-0.00013763826863937793,0
1011,-0.00013351644159609322,-0.005131670077605941,-0.00448499247734393,-0.0006466776002620111,0
1012,0.0023079270618753256,-0.0035558755576313365,-0.0032291506823859816,-0.00032672487524535495,0
1013,0.008106355382619945,0.00021751505668905413,-0.00027760403117450306,0.0004951190878635572,0
1014,0.01695658808270384,0.0061386506938872565,0.00580641715829872,0.00033223353558853655,0
1015,0.018406195162889993,0.007133524197312466,0.0068405253825126406,0.00029299881479982574,0
1016,0.005436026550698081,-0.001677350891944379,-0.0018865295700636448,0.00020917867811926579,0
1017,0.0023079270618753256,-0.003661090762671109,-0.003992895430465164,0.0003318046677940551,0
1018,0.00497825589379719,-0.0017410361736568975,-0.0017899854530884869,4.894927943158937e-05,0
1019,0.004367895017929335,-0.002203710644653559,-0.002162324567377549,-4.138607727600984e-05,0
1020,0.008182650492103427,0.0003331211729385193,0.0003241378786428922,8.983294295627098e-06,0
1021,0.011768520637827073,0.0027142786803694254,0.0029768398244903807,-0.0002625611441209553,0
1022,0.008411535820553873,0.00033369239010010995,0.00017466962100890477,0.00015902276909120517,0
1023,0.008258945601586909,0.0002043260321063479,0.00010733690971989553,9.698912238645236e-05,0
1024,0.0023079270618753256,-0.003992192201256122,-0.004379600410192043,0.0003874082089359203,0
1025,0.005054551003280672,-0.002270273009502436,-0.0023934866217999676,0.00012321361229753174,0
1026,0.009327077134355655,0.0004169606353144616,-0.00047610289166618344,0.000893063526980645,0
1027,0.012912947280079301,0.0026359674821079125,0.002498580603212956,0.00013738687889495657,0
1028,0.014057373922331529,0.00325426641107482,0.003156719397317158,9.754701375766202e-05,0
1029,0.01329442282749671,0.002674821998072112,0.0032577488804420287,-0.0005829268823699168,0
1030,0.0038338292515449623,-0.0038874812759600785,-0.0028686357454042882,-0.0010188455305557903,0
1031,0.004520485236896299,-0.0034990726008458373,-0.0032740499960523003,-0.00022502260479353694,0
1032,0.013218127718013228,0.0023594247940445096,0.0019018787924965446,0.00045754600154796496,0
1033,0.013370717936980192,0.0023306551347306264,0.0014835677853081,0.0008470873494225263,0
1034,0.00993743801022351,-0.00010852896298281328,-0.0003573534116699603,0.00024882444868714704,0
1035,0.0078774700541695,-0.0015849487394823528,-0.001343561260705891,-0.00024138747877646186,0
1036,0.009708552681773064,-0.00039662579901419184,0.00016620221115148953,-0.0005628280101656814,0
1037,0.009174486915388691,-0.0008796985306489809,-0.0009013485284451733,2.1649997796192454e-05,0
1038,0.012378881513694928,0.001224958351840376,0.001720429916019609,-0.000495471564179233,0
1039,0.008106355382619945,-0.0018564180076449043,-0.0016464768713708225,-0.0002099411362740818,0
1040,0.008182650492103427,-0.001962916813444524,-0.0019925761476249186,2.965933418039475e-05,0
1041,0.013523308155947156,0.001543969862799707,0.0013186115783542381,0.00022535828444546885,0
1042,0.017643244068055175,0.004268110346493159,0.004160387997641315,0.00010772234885184431,0
1043,0.015201800564583756,0.0025817681928250818,0.0029523916971493118,-0.00037062350432423,0
1044,0.008030060273136463,-0.0023036188388386183,-0.0021628322434520337,-0.0001407865953865846,0
1045,0.009021896696421727,-0.0015569645752228595,-0.000995717801185789,-0.0005612467740370704,0
1046,0.009403372243839137,-0.0012992397621629757,-0.0012877814077747337,-1.1458354388242057e-05,0
1047,0.010242618448157437,-0.0007703288592515492,-0.00045715260310443754,-0.00031317625614711163,0
1048,0.013981078812848047,0.0017652448294768514,0.0014877765084222593,0.0002774683210545921,0
1049,0.012531471732661892,0.0007464655216049406,0.0004306465803335643,0.0003158189412713763,0
1050,0.007724879835202537,-0.0025850176634987696,-0.002364504108340214,-0.00022051355515855572,0
1051,0.00497825589379719,-0.004571688789242817,-0.004294455625866252,-0.0002772331633765649,0
1052,0.011081864652475737,-0.0005347170390935731,-0.00044892042503085145,-8.579661406272164e-05,0
1053,0.015964751659418575,0.0026403517610786866,0.002406732003566561,0.00023361975751212552,0
1054,0.018863965819790884,0.004557690040993237,0.004676793688430637,-0.00011910364743740031,0
1055,0.01657511253528643,0.003054460823537736,0.003342235470726528,-0.0002877746471887919,0
1056,0.010242618448157437,-0.0011310638213544437,-0.0010050010217694505,-0.0001260627995849932,0
1057,0.01077668421454181,-0.0005293009602213223,-0.0005792046159216258,4.990365570030353e-05,0
1058,0.009021896696421727,-0.0015363124712212447,-0.001732399436796714,0.00019608696557546924,0
1059,0.009403372243839137,-0.001094305261017563,-0.0015066240689854478,0.0004123188079678847,0
1060,0.0074959945067520906,-0.0022883895060568787,-0.002273225326677186,-1.516417937969276e-05,0
1061,0.012531471732661892,0.0013030925129625347,0.0013024584164380497,6.340965244850272e-07,0
1062,0.01665140764476991,0.004323432115471579,0.00409834457843516,0.0002250875370364185,0
1063,0.012226291294727964,0.0015515807396705458,0.0015197632066854155,3.181753298513038e-05,0
1064,0.007572289616235572,-0.0013010784160518629,-0.001498806489463984,0.0001977280734121211,0
1065,0.003910124361028444,-0.0035021789811516464,-0.0033037073650059776,-0.00019847161614566875,0
1066,0.008564126039520836,-1.1341979699714419e-05,-0.00015825974573261133,0.0001469177660328969,0
1067,0.013447013046463674,0.0036494335920106745,0.003340471064994161,0.00030896252701651363,0
1068,0.011463340199893146,0.0026608517186102647,0.0025180023627280903,0.00014284935588217444,0
1069,0.012607766842145374,0.003987021204780252,0.003971374255068383,1.564694971186928e-05,0
1070,0.005130846112764154,-0.0005572248541766793,-0.0006273221591205587,7.009730494387937e-05,0
1071,9.53688868543523e-05,-0.0034136610702023206,-0.0038247313892035093,0.00041107031900118867,0
1072,-0.0008964675364309116,-0.0035855081765878505,-0.0035677170478786075,-1.779112870924299e-05,0
1073,0.004749370565346744,0.0007350458530302744,0.0008840079678322972,-0.0001489621148020228,0
1074,0.0026894026092927348,-0.00032737116886165054,-0.0003865024274199088,5.913125855825827e-05,0
1075,0.0017738612954909527,-0.0006146080084810354,-0.0008878425434828586,0.00027323453500182314,0
1076,0.0008583199816891707,-0.0009431988399254761,-0.0009211657317112461,-2.2033108214229973e-05,0
1077,0.004825665674830226,0.002094737752849391,0.002346053371396058,-0.0002513156185466668,0
1078,0.0029182879377431803,0.0010839325203212875,0.0013523827731949827,-0.00026845025287369523,0
1079,-0.0038719768062867033,-0.0033256774023262244,-0.0031673027316129034,-0.000158374670713321,0
1080,-0.00020981155107957505,-0.0005720036157740503,-0.0005249638549594142,-4.703976081463614e-05,0
1081,0.0014686808575570254,0.0007408273758551556,-0.00024024517183253815,0.0009810725476876937,0
1082,-0.0005912870984969842,-0.0005627938841471968,-0.0011794878170625768,0.00061669393291538,0
1083,-0.0009727626459143934,-0.000741113687251176,-0.0001426213694036368,-0.0005984923178475391,0
1084,-0.0013542381933318026,-0.000979009965593205,-0.0003292136258614335,-0.0006497963397317716,0
1085,-0.0022697795071335847,-0.0016607386976658866,-0.000494298200670222,-0.0011664404969956646,0
1086,-0.00020981155107957505,-0.0003532923340210935,-0.00030893355870547734,-4.435877531561616e-05,0
1087,-5.722133211261138e-05,-0.00042238290657934047,-0.0008239716218251562,0.00040158871524581573,0
1088,0.0019264515144579164,0.000753201002850952,0.0009591989222993292,-0.00020599791944837722,0
1089,0.0036812390325779987,0.0017823150502649938,0.0014952629853129964,0.00028705206495199744,0
1090,-0.0013542381933318026,-0.0018888252385099572,-0.00253791050378447,0.0006490852652745126,0
1091,-0.004100862134737149,-0.0040478973727455896,-0.004142490109100773,9.459273635518354e-05,0
1092,0.0056649118791485265,0.0023849258879691257,0.0026590306594955243,-0.0002741047715263986,0
1093,0.004367895017929335,0.0011580606491210556,0.0013745020445465406,-0.00021644139542548505,0
1094,0.008258945601586909,0.00361743008339106,0.004080245825289768,-0.0004628157418987075,0
1095,0.005512321660181563,0.0015785630642255611,0.0022224110514365266,-0.0006438479872109654,0
1096,0.003528648813611035,0.00014431996474075615,0.0002352957887241538,-9.097582398339766e-05,0
1097,0.002155336842908362,-0.0008538790296166716,-0.0013542164796809804,0.0005003374500643087,0
1098,-0.0023460746166170665,-0.004080571196869314,-0.0037688065639215423,-0.00031176463294777185,0
1099,0.001621271076523989,-0.0015420319519240469,-0.002016489907351868,0.000474457955427821,0
1100,0.0024605172808422893,-0.001259862568106874,-0.0013997306616443331,0.00013986809353745905,0
1101,0.0074959945067520906,0.0019161266126488635,0.001892001454794838,2.4125157854025482e-05,0
1102,0.012302586404211446,0.005021501667521579,0.004688370524661756,0.00033313114285982333,0
1103,0.011463340199893146,0.00439225653398728,0.004639315243937285,-0.0002470587099500047,0
1104,0.0032234683756771076,-0.0012290702289568464,-0.0012118476110060006,-1.7222617950845773e-05,0
1105,0.0006294346532387252,-0.0029362093533711045,-0.0029339784899904404,-2.230863380664038e-06,0
1106,0.0022316319523918438,-0.0018200337953789118,-0.0014365226110375222,-0.0003835111843413896,0
1107,0.006733043411917272,0.0012570251155827996,0.0016460414479044,-0.0003890163323216004,0
1108,0.0056649118791485265,0.0004884945466365458,3.2237946130957986e-05,0.00045625660050558785,0
1109,0.006733043411917272,0.0012450408439022417,0.0006669793552768653,0.0005780614886253764,0
1110,0.005436026550698081,0.00040276870531329704,0.00035885887858085985,4.390982673243719e-05,0
1111,0.0023842221713588074,-0.0016466018118730969,-0.0015175616015029446,-0.00012904021037015226,0
1112,0.004291599908445853,-0.0002832807762459373,-0.0003136072758692031,3.0326499623265835e-05,0
1113,0.004520485236896299,-0.00010340324914813187,-0.0003590782193251931,0.0002556749701770612,0
1114,0.004901960784313708,0.00018456543317832479,0.000529587060328453,-0.00034502162715012826,0
1115,0.007190814068818163,0.00182310510988953,0.0015185755607105798,0.00030452954917895014,0
1116,0.005512321660181563,0.0007621919792797476,0.0012868921070607038,-0.0005247001277809562,0
1117,0.004901960784313708,0.0004856747532795105,0.00040892402524057825,7.675072803893225e-05,0
1118,0.0013923857480735435,-0.0018022683811500248,-0.0019679802613799206,0.00016571188022989573,0
1119,0.003147173266193626,-0.00047767387284731544,-0.0002844362591059009,-0.00019323761374141454,0
1120,0.003604943923094517,-8.682922391461612e-05,-0.0003263919894519823,0.00023956276553736619,0
1121,0.004444190127412817,0.0005619715752070497,-0.00020659854158924297,0.0007685701167962927,0
1122,0.00497825589379719,0.0010131657601339153,0.0006717426682563083,0.00034142309187760707,0
1123,0.0022316319523918438,-0.0008022020242382479,-0.00022953768814653512,-0.0005726643360917128,0
1124,-0.0007438773174639479,-0.0028235032926580655,-0.0023993990031928717,-0.0004241042894651938,0
1125,0.001621271076523989,-0.0012328277621077499,-0.0009816191856516126,-0.0002512085764561373,0
1126,0.006733043411917272,0.002218826100626636,0.0021915050463468433,2.7321054279792756e-05,0
1127,0.004901960784313708,0.0008853701261676686,0.0010068054675225699,-0.0001214353413549013,0
1128,0.004749370565346744,0.0007553665468658317,0.0003862357392599764,0.00036913080760585536,0
1129,0.003147173266193626,-0.0003700028522139733,-7.132908442270583e-05,-0.00029867376779126747,0
1130,0.0016975661860074709,-0.0014154693975116511,-0.0017021395168398251,0.000286670119328174,0
1131,0.0023842221713588074,-0.0010346008761739334,-0.0015378803573290007,0.0005032794811550673,0
1132,0.0008583199816891707,-0.0022595864855449272,-0.002490936782407932,0.00023135029686300462,0
1133,0.0027656977187762166,-0.0011823404841439103,-0.0008569806814108493,-0.000325359802733061,0
1134,0.00497825589379719,5.230204093810192e-05,9.830629560740247e-05,-4.600425466930054e-05,0
1135,0.007953765163652982,0.0018209269059992798,0.0019816096466243422,-0.00016068274062506246,0
1136,0.0056649118791485265,-2.4414669868739712e-05,0.00044508780338228517,-0.00046950247325102485,0
1137,0.005512321660181563,-0.0003712150359765031,-0.00011258247059023601,-0.0002586325653862671,0
1138,0.0095559624628061,0.002211685317149289,0.0026478229762737174,-0.0004361376591244283,0
1139,0.0028419928282596985,-0.0026495001963918997,-0.0033525898646214664,0.0007030896682295668,0
1140,0.007572289616235572,0.00040596356893715435,6.703232696016735e-05,0.000338931241976987,0
1141,0.010013733119706991,0.0018801756814851426,0.0016320570109802262,0.0002481186705049164,0
1142,0.008106355382619945,0.0003924592992670649,0.0006285411545391341,-0.00023608185527206922,0
1143,0.0087167162584878,0.0006943719408355771,0.0015252037381862501,-0.000830831797350673,0
1144,0.005283436331731117,-0.001801664595626975,-0.002286734961004089,0.0004850703653771142,0
1145,0.007419699397268609,-0.0004613541345340927,-0.0012520429203655686,0.0007906887858314758,0
1146,0.006504158083466827,-0.0012714994605233355,-0.0017691964924269922,0.0004976970319036567,0
1147,0.010013733119706991,0.000977648191291427,0.0016548768319352555,-0.0006772286406438286,0
1148,0.011005569542992255,0.0015161346677992006,0.002065988059793874,-0.0005498533919946732,0
1149,0.012302586404211446,0.0023482352930905264,0.0026564105092334294,-0.000308175216142903,0
1150,0.011844815747310555,0.002066197674562414,0.0024331955309950374,-0.0003669978564326236,0
1151,0.012607766842145374,0.0027441343575366857,0.0026655900104265,7.854434711018548e-05,0
1152,0.011310749980926182,0.002108942967122445,0.0013931764598151828,0.0007157665073072622,0
1153,0.0036812390325779987,-0.002865299091285927,-0.0035224633759144137,0.0006571642846284866,0
1154,0.0007820248722056888,-0.004637472333838063,-0.004684049460826454,4.657712698839106e-05,0
1155,0.005512321660181563,-0.0012530393389506968,-0.0010857626551225746,-0.00016727668382812222,0
1156,0.007114518959334681,-0.00011172628656321174,3.785045832942949e-05,-0.00014957674489264123,0
1157,0.006733043411917272,-0.0003626181398281497,-7.248304692146138e-05,-0.0002901350929066883,0
1158,0.00909819180590521,0.001300358245893582,0.001982953776487836,-0.0006825955305942539,0
1159,0.006733043411917272,-0.0002945965666004462,-4.4379111199950984e-05,-0.0002502174554004952,0
1160,0.011387045090409664,0.003022026317870222,0.002659131325720529,0.000362894992149693,0
1161,0.012684061951628856,0.004114567621028239,0.0038779657853368044,0.00023660183569143437,0
1162,0.006504158083466827,0.0001376325362464232,-0.0006899204930911296,0.0008275530293375528,0
1163,0.003147173266193626,-0.001861120782647843,-0.002371071363672235,0.0005099505810243919,0
1164,0.0018501564049744346,-0.002506788477611959,-0.0013703542448610397,-0.0011364342327509192,0
1165,-0.003566796368352776,-0.00616377255272572,-0.005042196780849078,-0.0011215757718766421,0
1166,0.0010109102006561344,-0.00309280632020183,-0.00329864418326454,0.00020583786306271022,0
1167,0.004749370565346744,-0.0007578300982791389,-0.0009589652116814224,0.0002011351134022835,0
1168,0.010318913557640919,0.0028166435508941282,0.0022829824393412954,0.0005336611115528329,0
1169,0.01329442282749671,0.004684461525756612,0.004223852314931365,0.00046060921082524686,0
1170,0.009403372243839137,0.0019326185665232765,0.002155599146939407,-0.00022298058041613053,0
1171,0.005436026550698081,-0.0007937952800491446,-0.0005103318243980954,-0.0002834634556510492,0
1172,0.004291599908445853,-0.0015780245122472868,-0.0017399237734306448,0.000161899261183358,0
1173,0.00665674830243379,2.794937068634712e-05,-0.0005024676162446226,0.0005304169869309698,0
1174,0.004520485236896299,-0.0015240496559128455,-0.0013082023614170257,-0.0002158472944958198,0
1175,0.005359731441214599,-0.001056915151524295,-0.0008068996714826644,-0.0002500154800416305,0
1176,0.004444190127412817,-0.0018661753516215024,-0.0009958047629384692,-0.0008703705886830332,0
1177,0.0065804531929503085,-0.0006142760975407538,-0.0007988304488702735,0.0001845543513295197,0
1178,0.011539635309376628,0.0025939737721164704,0.002414523899227204,0.00017944987288926644,0
1179,0.007953765163652982,-7.324988798718243e-05,-0.0010425311973439153,0.0009692813093567328,0
1180,0.008869306477454764,0.0004195321866332333,0.00023071968927179768,0.00018881249736143563,0
1181,0.011158159761959219,0.0019008748498457566,0.00195668316530599,-5.580831546023353e-05,0
1182,0.013065537499046265,0.00320363026914358,0.002876658835203322,0.000326971433940258,0
1183,0.010547798886091364,0.0015470758477724544,0.0016030213007448535,-5.5945452972399126e-05,0
1184,0.004291599908445853,-0.0026600917606968695,-0.00195499554631439,-0.0007050962143824793,0
1185,0.003604943923094517,-0.0030731718926768816,-0.002066292786562435,-0.0010068791061144467,0
1186,0.0023079270618753256,-0.004044018856292678,-0.004311475335721209,0.00026745647942853085,0
1187,0.011310749980926182,0.0020365912734671408,0.0012658466190814295,0.0007707446543857113,0
1188,0.013752193484397601,0.0036076868256819023,0.00270513896523299,0.0009025478604489123,0
1189,0.01367589837491412,0.0035735199345493965,0.003698653734211663,-0.00012513379966226645,0
1190,0.00909819180590521,0.0005423846003376678,0.001093186022798321,-0.0005508014224606532,0
1191,0.005512321660181563,-0.0017641027479059078,-0.00134081280294131,-0.00042328994496459776,0
1192,0.004596780346379781,-0.00226864750090077,-0.0021250469585279196,-0.00014360054237285043,0
1193,0.005893797207598972,-0.001314460530003616,-0.0015197742070681359,0.00020531367706451984,0
1194,0.009861142900740028,0.0014601872731344844,0.0015489142343142776,-8.872696117979322e-05,0
1195,0.00833524071107039,0.00044999312053030567,-0.0003116804035383391,0.0007616735240686447,0
1196,0.007648584725719055,5.1995824262914406e-05,0.0001528608896212829,-0.00010086506535836849,0
1197,0.007648584725719055,0.00014165453387924627,0.000759018681997027,-0.0006173641481177806,0
1198,0.005741206988632008,-0.0010970598598048476,-0.0004767381942333413,-0.0006203216655715063,0
1199,0.0038338292515449623,-0.002380662678452039,-0.0028250240980453372,0.00044436141959329836,0
1200,0.008411535820553873,0.0007824615600658196,0.0008165687370269462,-3.410717696112665e-05,0
1201,0.012149996185244483,0.0033911701522521746,0.003297170614682883,9.399953756929159e-05,0
1202,0.009174486915388691,0.0014366405592019646,0.0006956025564945915,0.000741038002707373,0
1203,0.006351567864499863,-0.00035182988964170835,0.00026359904948162707,-0.0006154289391233354,0
1204,0.003147173266193626,-0.0024275111879424323,-0.0022387681135082795,-0.00018874307443415275,0
1205,0.0004768444342717615,-0.004238994113302299,-0.003671391458975,-0.0005676026543272993,0
1206,0.004444190127412817,-0.0015843047409554295,-0.0015174877282101314,-6.681701274529814e-05,0
1207,0.010242618448157437,0.0022810497817500833,0.0019519266128530323,0.00032912316889705103,0
1208,0.011005569542992255,0.0027098254400155443,0.0022070104518530443,0.0005028149881625,0
1209,0.009632257572289582,0.0017553202226432746,0.0016482674228749813,0.00010705279976829332,0
1210,0.006504158083466827,-0.0003544685968562585,-0.00023630659593895247,-0.00011816200091730605,0
1211,0.0033760585946440713,-0.0024785472577806586,-0.002569692075243407,9.114481746274857e-05,0
1212,0.0056649118791485265,-0.0009086188082479868,-0.0004650896150168205,-0.0004435291932311663,0
1213,0.008869306477454764,0.001267327157877013,0.0012179084413304496,4.941871654656348e-05,0
1214,0.011997405966277519,0.0034480268716271575,0.003818971550697026,-0.0003709446790698687,0
1215,0.009327077134355655,0.0017148271425411704,0.001665612035031517,4.921510750965333e-05,0
1216,0.005588616769665045,-0.0006904520154115346,-0.000954458318212932,0.00026400630280139735,0
1217,0.00581750209811549,-0.0003418385408306878,-0.0008183800835084474,0.0004765415426777596,0
1218,0.0036812390325779987,-0.0016671199266209144,-0.0018371871979200212,0.00017006727129910675,0
1219,-0.00455863279163804,-0.0073460980603812995,-0.0072356852739199895,-0.00011041278646130998,0
1220,0.0038338292515449623,-0.0016798050861361285,-0.0016596198356794453,-2.018525045668321e-05,0
1221,0.013981078812848047,0.005143269986075053,0.0052097050173074725,-6.643503123241953e-05,0
1222,0.01581216144045161,0.006354599779336728,0.0059661908854456705,0.00038840889389105734,0
1223,0.012531471732661892,0.0042526987946893205,0.004178434249928366,7.426454476095433e-05,0
1224,0.004901960784313708,-0.0007198821345996474,-0.0005250662032759392,-0.00019481593132370824,0
1225,-0.0015831235217822481,-0.00492807360117122,-0.004341764469827397,-0.0005863091313438231,0
1226,1.907377737087046e-05,-0.0036874153510997286,-0.004119615126371362,0.00043219977527163365,0
1227,0.002155336842908362,-0.0022430968675128944,-0.0021720839662209045,-7.10129012919899e-05,0
1228,0.006046387426565936,0.00032273649436959616,-0.00013442580298769053,0.0004571622973572867,0
1229,0.009250782024872173,0.0024095497417901935,0.0022442769077887035,0.00016527283400149,0
1230,0.007343404287785127,0.001005845268149698,0.0011695935888971325,-0.0001637483207474345,0
1231,0.005741206988632008,-0.00014827639512865275,0.0005315916069106111,-0.0006798680020392639,0
1232,0.002613107499809253,-0.00238450628352305,-0.002154574748770942,-0.00022993153475210767,0
1233,0.005970092317082454,-0.00017965642334438105,-0.00029044275950116283,0.00011078633615678178,0
1234,0.006885633630884236,0.0003033306359132453,0.0004226237628013625,-0.00011929312688811723,0
1235,0.009479667353322618,0.001975845685270821,0.0019421853379167772,3.3660347354043775e-05,0
1236,0.0070382238498511995,0.00020314745604499047,0.00011070197096418164,9.244548508080883e-05,0
1237,0.004444190127412817,-0.0016659232523378116,-0.0017321974267940693,6.627417445625766e-05,0
1238,0.005283436331731117,-0.0011964444124883428,-0.0011067880773628377,-8.965633512550506e-05,0
1239,0.006733043411917272,-0.0003472172316270138,-0.0003521822804006325,4.965048773618666e-06,0
1240,0.008258945601586909,0.0005443101045455063,0.0006383255256820734,-9.401542113656716e-05,0
1241,0.007953765163652982,0.00017964791241058004,0.00029473424404569386,-0.00011508633163511382,0
1242,0.009861142900740028,0.0013791521814596813,0.0012538890623481453,0.00012526311911153598,0
1243,0.009708552681773064,0.0011984967707537504,0.0010873979871276161,0.00011109878362613426,0
1244,0.00909819180590521,0.0007531166920734613,0.0007971743998355975,-4.405770776213613e-05,0
1245,0.005283436331731117,-0.0019024194688097686,-0.0018473427833663658,-5.5076685443402815e-05,0
1246,0.006504158083466827,-0.0011042883313735225,-0.001050747897269572,-5.354043410395041e-05,0
1247,0.00665674830243379,-0.0010976833313906084,-0.0013102218530436764,0.00021253852165306793,0
1248,0.012149996185244483,0.00261256714347714,0.0025014519620229795,0.00011111518145416046,0
1249,0.013828488593881083,0.0037667687259792726,0.0037306505126799066,3.611821329936593e-05,0
1250,0.008564126039520836,0.00022160960714279993,0.0003962311839764614,-0.00017462157683366145,0
1251,0.004444190127412817,-0.002503796009896192,-0.0025991227735955207,9.532676369932878e-05,0
1252,0.004596780346379781,-0.002332746793525498,-0.002273786203448138,-5.8960590077360066e-05,0
1253,0.007190814068818163,-0.0005414650394695482,-0.0005158243078612032,-2.564073160834493e-05,0
1254,0.00665674830243379,-0.0009573941434830147,-0.0007667595149955225,-0.00019063462848749226,0
1255,0.01283665217059582,0.0033043270201137914,0.0031542868716948344,0.00015004014841895697,0
1256,0.015049210345616792,0.004937144992054507,0.0048281214611640335,0.0001090235308904737,0
