t_ms,state,emg_raw_mV,emg_clean_ecg_mV,emg_ecg_artifact_mV,emg_env_rms,emg_mdf_hz,emg_mnf_hz,emg_pkt_rms_v,emg_snr,fatigue_score,fatigue_conf
23200,,0.00497825589379719,0.00497825589379719,0.0,0.007671973540755276,,,0.06839093614099336,143.0,,
23201,,0.0087167162584878,0.0087167162584878,0.0,0.007692798759625934,,,,,,
23202,,0.003147173266193626,0.003147173266193626,0.0,0.007687707617274057,,,,,,
23203,,-0.0015068284122987663,-0.0015068284122987663,0.0,0.0076599440385261165,,,,,,
23204,,-0.002040894178683139,-0.002040894178683139,0.0,0.007623746624108981,,,,,,
23205,,0.00017166399633783413,0.00017166399633783413,0.0,0.007602436819369594,,,,,,
23206,,0.0027656977187762166,0.0027656977187762166,0.0,0.0075805237744893195,,,,,,
23207,,0.003528648813611035,0.003528648813611035,0.0,0.007578233973363765,,,,,,
23208,,-0.0006675822079804661,-0.0006675822079804661,0.0,0.007578315793706671,,,,,,
23209,,-0.0006675822079804661,-0.0006675822079804661,0.0,0.007562959002634992,,,,,,
23210,,-0.0031853208209353667,-0.0031853208209353667,0.0,0.007548368144863109,,,,,,
23211,,0.0010109102006561344,0.0010109102006561344,0.0,0.00753839105101568,,,,,,
23212,,0.005207141222247635,0.005207141222247635,0.0,0.007519853727146307,,,,,,
23213,,0.0037575341420614805,0.0037575341420614805,0.0,0.0075223951300712,,,,,,
23214,,0.004062714579995408,0.004062714579995408,0.0,0.00751886250705746,,,,,,
23215,,0.002613107499809253,0.002613107499809253,0.0,0.007504244086944435,,,,,,
23216,,-0.002040894178683139,-0.002040894178683139,0.0,0.007493187462319175,,,,,,
23217,,-0.005321583886472858,-0.005321583886472858,0.0,0.007495272795732533,,,,,,
23218,,-0.005321583886472858,-0.005321583886472858,0.0,0.007496732183981351,,,,,,
23219,,-0.004863813229571967,-0.004863813229571967,0.0,0.00747492402047869,,,,,,
23220,,0.0028419928282596985,0.0028419928282596985,0.0,0.007473166593873467,,,,,,
23221,,0.005283436331731117,0.005283436331731117,0.0,0.007479412217814576,,,,,,
23222,,0.0056649118791485265,0.0056649118791485265,0.0,0.0074872879759328515,,,,,,
23223,,0.002536812390325771,0.002536812390325771,0.0,0.007475381086854408,,,,,,
23224,,-0.0019645990691996573,-0.0019645990691996573,0.0,0.007461453405767632,,,,,,
23225,,-0.0007438773174639479,-0.0007438773174639479,0.0,0.00743622595333282,,,,,,
23226,,0.002536812390325771,0.002536812390325771,0.0,0.007422979183005367,,,,,,
23227,,0.0018501564049744346,0.0018501564049744346,0.0,0.007411290829099703,,,,,,
23228,,0.0022316319523918438,0.0022316319523918438,0.0,0.007406133463939768,,,,,,
23229,,0.0004768444342717615,0.0004768444342717615,0.0,0.007399143641633806,,,,,,
23230,,-0.0018883039597161755,-0.0018883039597161755,0.0,0.007399143641633806,,,,,,
23231,,0.0006294346532387252,0.0006294346532387252,0.0,0.007385471415648084,,,,,,
23232,,0.0013160906385900617,0.0013160906385900617,0.0,0.0073637796849157664,,,,,,
23233,,0.006961928740367718,0.006961928740367718,0.0,0.007371531790719495,,,,,,
23234,,0.005893797207598972,0.005893797207598972,0.0,0.007368856788873206,,,,,,
23235,,0.0056649118791485265,0.0056649118791485265,0.0,0.007344263257582893,,,,,,
23236,,0.0004768444342717615,0.0004768444342717615,0.0,0.007316157181599741,,,,,,
23237,,0.0033760585946440713,0.0033760585946440713,0.0,0.007297921479215384,,,,,,
23238,,0.004367895017929335,0.004367895017929335,0.0,0.007287366232688684,,,,,,
23239,,0.005130846112764154,0.005130846112764154,0.0,0.007277586869771905,,,,,,
23240,,0.00497825589379719,0.00497825589379719,0.0,0.007283007280755306,,,,,,
23241,,0.000705729762722207,0.000705729762722207,0.0,0.007283147148166147,,,,,,
23242,,0.0013923857480735435,0.0013923857480735435,0.0,0.0072770982522118045,,,,,,
23243,,0.001621271076523989,0.001621271076523989,0.0,0.0072524875641463695,,,,,,
23244,,0.0032997634851605895,0.0032997634851605895,0.0,0.007224013920708009,,,,,,
23245,,0.0028419928282596985,0.0028419928282596985,0.0,0.007200440641593301,,,,,,
23246,,0.002613107499809253,0.002613107499809253,0.0,0.007189571559272435,,,,,,
23247,,0.001621271076523989,0.001621271076523989,0.0,0.0071805260950391775,,,,,,
23248,,-0.0023460746166170665,-0.0023460746166170665,0.0,0.007179812328945768,,,,,,
23249,,-0.0015831235217822481,-0.0015831235217822481,0.0,0.007173628673217477,,,,,,
23250,,-0.004177157244220631,-0.004177157244220631,0.0,0.007162051952739813,,,,,,
23251,,-0.005779354543373749,-0.005779354543373749,0.0,0.00715949929228768,,,,,,
23252,,-0.008220798046845168,-0.008220798046845168,0.0,0.007164483600131432,,,,,,
23253,,-0.01791027695124736,-0.01791027695124736,0.0,0.007248338960069362,,,,,,
23254,,-0.022030212863355565,-0.022030212863355565,0.0,0.007375413795697227,,,,,,
23255,,-0.027065690089265366,-0.027065690089265366,0.0,0.007583443665685841,,,,,,
23256,,-0.03133821622034035,-0.03133821622034035,0.0,0.007854374174782013,,,,,,
23257,,-0.033398184176394355,-0.033398184176394355,0.0,0.008141185860058646,,,,,,
23258,,-0.03698405432211801,-0.03698405432211801,0.0,0.008485766573885835,,,,,,
23259,,-0.0353055619134814,-0.0353055619134814,0.0,0.008778309228071005,,,,,,
23260,,-0.0353055619134814,-0.0353055619134814,0.0,0.009075540729191745,,,,,,
23261,,-0.036831464103151045,-0.036831464103151045,0.0,0.009381454667334612,,,,,,
23262,,-0.04507133592736708,-0.04507133592736708,0.0,0.00983191032445024,,,,,,
23263,,-0.0613221942473489,-0.0613221942473489,0.0,0.010617582111188914,,,,,,
23264,,-0.06979095140001537,-0.06979095140001537,0.0,0.011541150694480015,,,,,,
23265,,-0.07001983672846583,-0.07001983672846583,0.0,0.012417210467358457,,,,,,
23266,,-0.06963836118104842,-0.06963836118104842,0.0,0.013226437677991023,,,,,,
23267,,-0.06605249103532478,-0.06605249103532478,0.0,0.013920403437632635,,,,,,
23268,,-0.06475547417410558,-0.06475547417410558,0.0,0.014558873749245417,,,,,,
23269,,-0.05743114366369114,-0.05743114366369114,0.0,0.015037130799131467,,,,,,
23270,,-0.04407949950408182,-0.04407949950408182,0.0,0.01529813262308989,,,,,,
23271,,-0.04026474402990773,-0.04026474402990773,0.0,0.015515695430307805,,,,,,
23272,,-0.04575799191271841,-0.04575799191271841,0.0,0.01579686500913018,,,,,,
23273,,-0.043392843518730476,-0.043392843518730476,0.0,0.016040416847575165,,,,,,
23274,,-0.034390020599679626,-0.034390020599679626,0.0,0.016186343803915433,,,,,,
23275,,-0.0407988097962921,-0.0407988097962921,0.0,0.016396178352927518,,,,,,
23276,,-0.04041733424887469,-0.04041733424887469,0.0,0.01660613748318605,,,,,,
23277,,-0.018825818265049143,-0.018825818265049143,0.0,0.01664505705740159,,,,,,
23278,,0.009784847791256546,0.009784847791256546,0.0,0.016647550835413468,,,,,,
23279,,0.03786144808117786,0.03786144808117786,0.0,0.016827509662682233,,,,,,
23280,,0.07280460822461292,0.07280460822461292,0.0,0.01749723053814967,,,,,,
23281,,0.09485389486533916,0.09485389486533916,0.0,0.018580354623661748,,,,,,
23282,,0.08760585946440838,0.08760585946440838,0.0,0.019451883657605282,,,,,,
23283,,0.08554589150835439,0.08554589150835439,0.0,0.020242223252821073,,,,,,
23284,,0.08638513771267269,0.08638513771267269,0.0,0.021020316379495578,,,,,,
23285,,0.09622720683604184,0.09622720683604184,0.0,0.021948389963892253,,,,,,
23286,,0.11995498588540487,0.11995498588540487,0.0,0.02332205836687872,,,,,,
23287,,0.14742122529945834,0.14742122529945834,0.0,0.025266267534726508,,,,,,
23288,,0.15398260471503777,0.15398260471503777,0.0,0.027229839395359744,,,,,,
23289,,0.1455138475623713,0.1455138475623713,0.0,0.028870412661140512,,,,,,
23290,,0.13925764858472578,0.13925764858472578,0.0,0.03029055084375374,,,,,,
23291,,0.1353665980010682,0.1353665980010682,0.0,0.03157546554356727,,,,,,
23292,,0.16840238040741584,0.16840238040741584,0.0,0.033466501985484766,,,,,,
23293,,0.1732089723048752,0.1732089723048752,0.0,0.03536063180012285,,,,,,
23294,,0.16283283741512167,0.16283283741512167,0.0,0.03695207051993987,,,,,,
23295,,0.13231479362172893,0.13231479362172893,0.0,0.03796713545004417,,,,,,
23296,,0.09920271610589763,0.09920271610589763,0.0,0.03852536508398808,,,,,,
23297,,0.06876096742198838,0.06876096742198838,0.0,0.038787385471955434,,,,,,
23298,,0.04785610742351436,0.04785610742351436,0.0,0.03890733711083946,,,,,,
23299,,0.04129472800793492,0.04129472800793492,0.0,0.0389952239091821,,,,,,
23300,,0.055905241474021684,0.055905241474021684,0.0,0.03916736166165538,,,0.035156786449988556,255.0,,
23301,,0.039425497825589614,0.039425497825589614,0.0,0.03925292227956687,,,,,,
23302,,0.023327229724574572,0.023327229724574572,0.0,0.039282116812820095,,,,,,
23303,,0.00043869687953002057,0.00043869687953002057,0.0,0.03927703316111322,,,,,,
23304,,-0.014667734798199383,-0.014667734798199383,0.0,0.03928533708498297,,,,,,
23305,,-0.03076600289921424,-0.03076600289921424,0.0,0.03933568582590041,,,,,,
23306,,-0.04381246662088963,-0.04381246662088963,0.0,0.03943518032691861,,,,,,
23307,,-0.058384832532234664,-0.058384832532234664,0.0,0.039615293298530876,,,,,,
23308,,-0.06494621194781429,-0.06494621194781429,0.0,0.03984431234731806,,,,,,
23309,,-0.07364385442893122,-0.07364385442893122,0.0,0.040137882953879565,,,,,,
23310,,-0.08707179369802402,-0.08707179369802402,0.0,0.04054024302991464,,,,,,
23311,,-0.08630884260318919,-0.08630884260318919,0.0,0.0409303448094303,,,,,,
23312,,-0.08455405508506912,-0.08455405508506912,0.0,0.04130207862002446,,,,,,
23313,,-0.07837415121690708,-0.07837415121690708,0.0,0.04162040161553323,,,,,,
23314,,-0.07265201800564594,-0.07265201800564594,0.0,0.04189506095654029,,,,,,
23315,,-0.06425955596246295,-0.06425955596246295,0.0,0.042108759563441685,,,,,,
23316,,-0.05457007705806057,-0.05457007705806057,0.0,0.04226196960830307,,,,,,
23317,,-0.05365453574425879,-0.05365453574425879,0.0,0.042407701209579,,,,,,
23318,,-0.050984206912336925,-0.050984206912336925,0.0,0.04253286324183603,,,,,,
23319,,-0.042133974212253025,-0.042133974212253025,0.0,0.042620489597190656,,,,,,
23320,,-0.033588921950103066,-0.033588921950103066,0.0,0.04267516368133378,,,,,,
23321,,-0.025730525673304434,-0.025730525673304434,0.0,0.04270886282307531,,,,,,
23322,,-0.017948424505989102,-0.017948424505989102,0.0,0.04272476532301965,,,,,,
23323,,-0.015659571221484647,-0.015659571221484647,0.0,0.042734469154549884,,,,,,
23324,,-0.012073701075761,-0.012073701075761,0.0,0.04274048470789742,,,,,,
23325,,-0.003910124361028444,-0.003910124361028444,0.0,0.04274075857285634,,,,,,
23326,,0.0024223697261005483,0.0024223697261005483,0.0,0.04274105034813321,,,,,,
23327,,0.005779354543373749,0.005779354543373749,0.0,0.04274197155147338,,,,,,
23328,,0.012340733958953187,0.012340733958953187,0.0,0.0427497011500305,,,,,,
23329,,0.012569619287403633,0.012569619287403633,0.0,0.042757732554883375,,,,,,
23330,,0.013103685053788006,0.013103685053788006,0.0,0.04276464986735154,,,,,,
23331,,0.011882963302052296,0.011882963302052296,0.0,0.042771273902282116,,,,,,
23332,,0.015545128557259423,0.015545128557259423,0.0,0.04278330135554311,,,,,,
23333,,0.015011062790875052,0.015011062790875052,0.0,0.04279474527735295,,,,,,
23334,,0.020428015564202262,0.020428015564202262,0.0,0.04281534661815688,,,,,,
23335,,0.021419851987487526,0.021419851987487526,0.0,0.042838279270306256,,,,,,
23336,,0.020580605783169226,0.020580605783169226,0.0,0.04285975488431533,,,,,,
23337,,0.020504310673685744,0.020504310673685744,0.0,0.042880072971087965,,,,,,
23338,,0.01737621118486299,0.01737621118486299,0.0,0.04289525650808646,,,,,,
23339,,0.015697718776226388,0.015697718776226388,0.0,0.04290768318070046,,,,,,
23340,,0.017299916075379507,0.017299916075379507,0.0,0.04292162682508962,,,,,,
23341,,0.021496147096971008,0.021496147096971008,0.0,0.04294421984396877,,,,,,
23342,,0.0227931639581902,0.0227931639581902,0.0,0.042967668458323685,,,,,,
23343,,0.018062867170214325,0.018062867170214325,0.0,0.042980329603977,,,,,,
23344,,0.011577782864118369,0.011577782864118369,0.0,0.04297857571423076,,,,,,
23345,,0.012645914396887115,0.012645914396887115,0.0,0.042974381339808757,,,,,,
23346,,0.016384374761577725,0.016384374761577725,0.0,0.04298457285551217,,,,,,
23347,,0.015545128557259423,0.015545128557259423,0.0,0.042995577508856624,,,,,,
23348,,0.018978408484016107,0.018978408484016107,0.0,0.043012249110857353,,,,,,
23349,,0.013942931258106306,0.013942931258106306,0.0,0.04301164879053317,,,,,,
23350,,0.01203555352101926,0.01203555352101926,0.0,0.04300337201840584,,,,,,
23351,,0.013866636148622824,0.013866636148622824,0.0,0.04299143998251394,,,,,,
23352,,0.01661326009002817,0.01661326009002817,0.0,0.04299263117176378,,,,,,
23353,,0.01707103074692906,0.01707103074692906,0.0,0.042997803499589045,,,,,,
23354,,0.015697718776226388,0.015697718776226388,0.0,0.04300059380831239,,,,,,
23355,,0.012645914396887115,0.012645914396887115,0.0,0.04299554557571242,,,,,,
23356,,0.00913633936064695,0.00913633936064695,0.0,0.04298933567355821,,,,,,
23357,,0.006160830090791158,0.006160830090791158,0.0,0.042983505678759394,,,,,,
23358,,0.00951781490806436,0.00951781490806436,0.0,0.04297247835155293,,,,,,
23359,,0.01737621118486299,0.01737621118486299,0.0,0.0429769816351745,,,,,,
23360,,0.013561455710688897,0.013561455710688897,0.0,0.042981441315729466,,,,,,
23361,,0.016918440527962098,0.016918440527962098,0.0,0.04298854487535302,,,,,,
23362,,0.014705882352941124,0.014705882352941124,0.0,0.042990128370504095,,,,,,
23363,,0.007839322499427759,0.007839322499427759,0.0,0.04298558215954628,,,,,,
23364,,0.009212634470130432,0.009212634470130432,0.0,0.04298231453101584,,,,,,
23365,,0.011272602426184442,0.011272602426184442,0.0,0.04298079890529495,,,,,,
23366,,0.009060044251163468,0.009060044251163468,0.0,0.042978993068162566,,,,,,
23367,,0.010051880674448732,0.010051880674448732,0.0,0.04298225447227229,,,,,,
23368,,0.014400701915007197,0.014400701915007197,0.0,0.042991938302170664,,,,,,
23369,,0.013942931258106306,0.013942931258106306,0.0,0.0429995782351764,,,,,,
23370,,0.010433356221866141,0.010433356221866141,0.0,0.0429989580204284,,,,,,
23371,,0.007991912718394723,0.007991912718394723,0.0,0.04299208723769826,,,,,,
23372,,0.010967421988250514,0.010967421988250514,0.0,0.042989637977459715,,,,,,
23373,,0.011425192645151405,0.011425192645151405,0.0,0.04299378774462117,,,,,,
23374,,0.012264438849469705,0.012264438849469705,0.0,0.043000962098468286,,,,,,
23375,,0.006542305638208568,0.006542305638208568,0.0,0.04300298020778207,,,,,,
23376,,0.008983749141679986,0.008983749141679986,0.0,0.04300602705559799,,,,,,
23377,,0.009746700236514805,0.009746700236514805,0.0,0.043007631238905775,,,,,,
23378,,0.012188143739986224,0.012188143739986224,0.0,0.04301224146164349,,,,,,
23379,,0.01707103074692906,0.01707103074692906,0.0,0.04302488022598778,,,,,,
23380,,0.011501487754634887,0.011501487754634887,0.0,0.043030193805037906,,,,,,
23381,,0.011882963302052296,0.011882963302052296,0.0,0.043036294752061825,,,,,,
23382,,0.012493324177920151,0.012493324177920151,0.0,0.04304343600309807,,,,,,
23383,,0.01165407797360185,0.01165407797360185,0.0,0.04304672192123234,,,,,,
23384,,0.007686732280460796,0.007686732280460796,0.0,0.04304675146469511,,,,,,
23385,,0.0051689936675058945,0.0051689936675058945,0.0,0.04304606343480962,,,,,,
23386,,0.010204470893415696,0.010204470893415696,0.0,0.0430512910692156,,,,,,
23387,,0.01707103074692906,0.01707103074692906,0.0,0.043065948517595494,,,,,,
23388,,0.018978408484016107,0.018978408484016107,0.0,0.043083740143865894,,,,,,
23389,,0.015239948119325497,0.015239948119325497,0.0,0.04309446136576013,,,,,,
23390,,0.012645914396887115,0.012645914396887115,0.0,0.043100730107898916,,,,,,
23391,,0.009288929579613914,0.009288929579613914,0.0,0.043104153014114646,,,,,,
23392,,0.010662241550316587,0.010662241550316587,0.0,0.04310775280555291,,,,,,
23393,,0.014782177462424606,0.014782177462424606,0.0,0.043118406280109066,,,,,,
23394,,0.01455329213397416,0.01455329213397416,0.0,0.04312874904811046,,,,,,
23395,,0.01615548943312728,0.01615548943312728,0.0,0.043141744234132126,,,,,,
23396,,0.011043717097733996,0.011043717097733996,0.0,0.04314604757282426,,,,,,
23397,,0.012188143739986224,0.012188143739986224,0.0,0.043148007426534234,,,,,,
23398,,0.008449683375295614,0.008449683375295614,0.0,0.043147363830071055,,,,,,
23399,,0.013866636148622824,0.013866636148622824,0.0,0.04315642344738341,,,,,,
23400,,0.01161593041886011,0.01161593041886011,0.0,0.043163219697610083,,,0.003936827649347677,58.0,,
23401,,0.009632257572289582,0.009632257572289582,0.0,0.043167814916134625,,,,,,
23402,,0.006961928740367718,0.006961928740367718,0.0,0.04316984896863987,,,,,,
23403,,0.006809338521400754,0.006809338521400754,0.0,0.04317081847355775,,,,,,
23404,,0.005130846112764154,0.005130846112764154,0.0,0.04317016114720325,,,,,,
23405,,0.004291599908445853,0.004291599908445853,0.0,0.04316976293593477,,,,,,
23406,,0.006504158083466827,0.006504158083466827,0.0,0.043170320459994485,,,,,,
23407,,0.0070382238498511995,0.0070382238498511995,0.0,0.043171326887010815,,,,,,
23408,,0.00993743801022351,0.00993743801022351,0.0,0.043175270441992444,,,,,,
23409,,0.008106355382619945,0.008106355382619945,0.0,0.043175920070345215,,,,,,
23410,,0.00581750209811549,0.00581750209811549,0.0,0.04317496504148254,,,,,,
23411,,0.0023079270618753256,0.0023079270618753256,0.0,0.04317390770009404,,,,,,
23412,,0.003147173266193626,0.003147173266193626,0.0,0.04317431920900955,,,,,,
23413,,0.00993743801022351,0.00993743801022351,0.0,0.04317808151999113,,,,,,
23414,,0.012302586404211446,0.012302586404211446,0.0,0.04318515302714806,,,,,,
23415,,0.006961928740367718,0.006961928740367718,0.0,0.043186598629913274,,,,,,
23416,,0.0023842221713588074,0.0023842221713588074,0.0,0.043185785511782565,,,,,,
23417,,0.0032997634851605895,0.0032997634851605895,0.0,0.04318420406305547,,,,,,
23418,,0.004520485236896299,0.004520485236896299,0.0,0.04318222870917379,,,,,,
23419,,0.008106355382619945,0.008106355382619945,0.0,0.04318409066067129,,,,,,
23420,,0.008564126039520836,0.008564126039520836,0.0,0.04318712854028234,,,,,,
23421,,0.007648584725719055,0.007648584725719055,0.0,0.04318911289942523,,,,,,
23422,,0.005893797207598972,0.005893797207598972,0.0,0.04318976217307437,,,,,,
23423,,0.005130846112764154,0.005130846112764154,0.0,0.043186116474685454,,,,,,
23424,,0.002536812390325771,0.002536812390325771,0.0,0.04318274827028757,,,,,,
23425,,0.003910124361028444,0.003910124361028444,0.0,0.04318123572346168,,,,,,
23426,,0.005588616769665045,0.005588616769665045,0.0,0.04318170870223971,,,,,,
23427,,0.008945601586938245,0.008945601586938245,0.0,0.04318474294008259,,,,,,
23428,,0.009632257572289582,0.009632257572289582,0.0,0.043189162562172284,,,,,,
23429,,0.00581750209811549,0.00581750209811549,0.0,0.043189162562172284,,,,,,
23430,,0.0042153047989623715,0.0042153047989623715,0.0,0.043188809501284973,,,,,,
23431,,0.0006294346532387252,0.0006294346532387252,0.0,0.04318500475746166,,,,,,
23432,,0.00413900968947889,0.00413900968947889,0.0,0.04318536854472715,,,,,,
23433,,0.008106355382619945,0.008106355382619945,0.0,0.043188562063947084,,,,,,
23434,,0.010242618448157437,0.010242618448157437,0.0,0.04319363285447492,,,,,,
23435,,0.01077668421454181,0.01077668421454181,0.0,0.04319947608692889,,,,,,
23436,,0.010700389105058328,0.010700389105058328,0.0,0.043204852691703335,,,,,,
23437,,0.0036812390325779987,0.0036812390325779987,0.0,0.04320490804768626,,,,,,
23438,,0.002536812390325771,0.002536812390325771,0.0,0.04320520942901572,,,,,,
23439,,0.0019264515144579164,0.0019264515144579164,0.0,0.04320537373806784,,,,,,
23440,,0.007343404287785127,0.007343404287785127,0.0,0.04320757647341643,,,,,,
23441,,0.011005569542992255,0.011005569542992255,0.0,0.043213618701995846,,,,,,
23442,,0.006427862973983345,0.006427862973983345,0.0,0.04321433320024661,,,,,,
23443,,0.009174486915388691,0.009174486915388691,0.0,0.043217857055799905,,,,,,
23444,,0.008030060273136463,0.008030060273136463,0.0,0.04322027025307378,,,,,,
23445,,0.003070878156710144,0.003070878156710144,0.0,0.0432204011275501,,,,,,
23446,,0.006351567864499863,0.006351567864499863,0.0,0.04322222073944522,,,,,,
23447,,0.009632257572289582,0.009632257572289582,0.0,0.04322546276716717,,,,,,
23448,,0.009479667353322618,0.009479667353322618,0.0,0.04322855789507937,,,,,,
23449,,0.007343404287785127,0.007343404287785127,0.0,0.0432300800558298,,,,,,
23450,,0.004749370565346744,0.004749370565346744,0.0,0.04323080818589132,,,,,,
23451,,0.0033760585946440713,0.0033760585946440713,0.0,0.04322997760438469,,,,,,
23452,,0.004749370565346744,0.004749370565346744,0.0,0.04322949812839441,,,,,,
23453,,0.004520485236896299,0.004520485236896299,0.0,0.043230202119091725,,,,,,
23454,,0.004367895017929335,0.004367895017929335,0.0,0.04323096742154488,,,,,,
23455,,0.006885633630884236,0.006885633630884236,0.0,0.043233323689409575,,,,,,
23456,,0.006427862973983345,0.006427862973983345,0.0,0.04323507763524785,,,,,,
23457,,0.0029182879377431803,0.0029182879377431803,0.0,0.043235333733192556,,,,,,
23458,,-5.722133211261138e-05,-5.722133211261138e-05,0.0,0.0432350834889321,,,,,,
23459,,0.005588616769665045,0.005588616769665045,0.0,0.04323664244317782,,,,,,
23460,,0.008411535820553873,0.008411535820553873,0.0,0.04324002049669875,,,,,,
23461,,0.010242618448157437,0.010242618448157437,0.0,0.043245274722132576,,,,,,
23462,,0.005436026550698081,0.005436026550698081,0.0,0.04324667310765153,,,,,,
23463,,-0.0005912870984969842,-0.0005912870984969842,0.0,0.04324425421451779,,,,,,
23464,,-0.001201647974364839,-0.001201647974364839,0.0,0.043242580529893423,,,,,,
23465,,0.00207904173342488,0.00207904173342488,0.0,0.04324118449948844,,,,,,
23466,,0.0042153047989623715,0.0042153047989623715,0.0,0.04324206636986607,,,,,,
23467,,0.0042153047989623715,0.0042153047989623715,0.0,0.04324238665979859,,,,,,
23468,,0.009861142900740028,0.009861142900740028,0.0,0.04324631598085112,,,,,,
23469,,0.009479667353322618,0.009479667353322618,0.0,0.04324950982742535,,,,,,
23470,,0.005054551003280672,0.005054551003280672,0.0,0.043249548302541484,,,,,,
23471,,0.008258945601586909,0.008258945601586909,0.0,0.0432529516788182,,,,,,
23472,,0.006351567864499863,0.006351567864499863,0.0,0.04325488182200578,,,,,,
23473,,0.007114518959334681,0.007114518959334681,0.0,0.04325729353884463,,,,,,
23474,,0.010852979324025291,0.010852979324025291,0.0,0.0432626654444019,,,,,,
23475,,0.0103952086671244,0.0103952086671244,0.0,0.043267689237616216,,,,,,
23476,,0.008106355382619945,0.008106355382619945,0.0,0.043270647698564604,,,,,,
23477,,0.007419699397268609,0.007419699397268609,0.0,0.04327328136579248,,,,,,
23478,,0.005588616769665045,0.005588616769665045,0.0,0.043274573868687424,,,,,,
23479,,0.009479667353322618,0.009479667353322618,0.0,0.043278962095860594,,,,,,
23480,,0.011387045090409664,0.011387045090409664,0.0,0.0432845983741724,,,,,,
23481,,0.01329442282749671,0.01329442282749671,0.0,0.043291796879078616,,,,,,
23482,,0.011158159761959219,0.011158159761959219,0.0,0.04329465519393562,,,,,,
23483,,0.012912947280079301,0.012912947280079301,0.0,0.04328692015067933,,,,,,
23484,,0.008640421149004318,0.008640421149004318,0.0,0.04326629080016509,,,,,,
23485,,0.008869306477454764,0.008869306477454764,0.0,0.04323342379136201,,,,,,
23486,,0.011005569542992255,0.011005569542992255,0.0,0.04319011024536195,,,,,,
23487,,0.011310749980926182,0.011310749980926182,0.0,0.04314037691326901,,,,,,
23488,,0.012302586404211446,0.012302586404211446,0.0,0.0430790335873437,,,,,,
23489,,0.009479667353322618,0.009479667353322618,0.0,0.04302062712535772,,,,,,
23490,,0.004596780346379781,0.004596780346379781,0.0,0.042958663148533596,,,,,,
23491,,0.0018501564049744346,0.0018501564049744346,0.0,0.04289013347662648,,,,,,
23492,,0.006885633630884236,0.006885633630884236,0.0,0.042789454361421175,,,,,,
23493,,0.010547798886091364,0.010547798886091364,0.0,0.04260365607908323,,,,,,
23494,,0.015964751659418575,0.015964751659418575,0.0,0.042367468241684476,,,,,,
23495,,0.010242618448157437,0.010242618448157437,0.0,0.042120565961737404,,,,,,
23496,,0.006809338521400754,0.006809338521400754,0.0,0.041871934329761266,,,,,,
23497,,0.006809338521400754,0.006809338521400754,0.0,0.04164722335114157,,,,,,
23498,,0.006046387426565936,0.006046387426565936,0.0,0.041429681983225164,,,,,,
23499,,0.008869306477454764,0.008869306477454764,0.0,0.0412603923487658,,,,,,
23500,,0.010128175783932214,0.010128175783932214,0.0,0.041163310612106825,,,0.006820782787823301,98.0,,
23501,,0.009288929579613914,0.009288929579613914,0.0,0.041082166178820004,,,,,,
23502,,0.006160830090791158,0.006160830090791158,0.0,0.04097323457908277,,,,,,
23503,,0.007381551842526868,0.007381551842526868,0.0,0.04087610747706698,,,,,,
23504,,0.006694895857175531,0.006694895857175531,0.0,0.04081554826732514,,,,,,
23505,,0.006313420309758122,0.006313420309758122,0.0,0.0407289226300231,,,,,,
23506,,0.012493324177920151,0.012493324177920151,0.0,0.04064998551364965,,,,,,
23507,,0.014629587243457642,0.014629587243457642,0.0,0.04064247711068826,,,,,,
23508,,0.019207293812466553,0.019207293812466553,0.0,0.04065708636017186,,,,,,
23509,,0.012340733958953187,0.012340733958953187,0.0,0.0405885236972703,,,,,,
23510,,0.011348897535667923,0.011348897535667923,0.0,0.04031057609411264,,,,,,
23511,,0.007228961623559904,0.007228961623559904,0.0,0.039825258637444856,,,,,,
23512,,0.008754863813229541,0.008754863813229541,0.0,0.039408321947326276,,,,,,
23513,,0.012645914396887115,0.012645914396887115,0.0,0.039011451078019406,,,,,,
23514,,0.015621423666742905,0.015621423666742905,0.0,0.03860711239715225,,,,,,
23515,,0.015316243228808977,0.015316243228808977,0.0,0.03809553273649752,,,,,,
23516,,0.014171816586556751,0.014171816586556751,0.0,0.037277085459197536,,,,,,
23517,,0.01821545738918129,0.01821545738918129,0.0,0.03600739285779206,,,,,,
23518,,0.012493324177920151,0.012493324177920151,0.0,0.03455605898484394,,,,,,
23519,,0.013790341039139342,0.013790341039139342,0.0,0.033209727003793564,,,,,,
23520,,0.017986572060730843,0.017986572060730843,0.0,0.03193707104865978,,,,,,
23521,,0.018444342717631734,0.018444342717631734,0.0,0.03068852459175731,,,,,,
23522,,0.012417029068436669,0.012417029068436669,0.0,0.028620872245112967,,,,,,
23523,,0.012645914396887115,0.012645914396887115,0.0,0.02625659888239859,,,,,,
23524,,0.013866636148622824,0.013866636148622824,0.0,0.02397841576318432,,,,,,
23525,,0.01699473563744558,0.01699473563744558,0.0,0.022362957882255726,,,,,,
23526,,0.012417029068436669,0.012417029068436669,0.0,0.02140057265935475,,,,,,
23527,,0.01455329213397416,0.01455329213397416,0.0,0.020936774906872766,,,,,,
23528,,0.011730373083085333,0.011730373083085333,0.0,0.020712059041532196,,,,,,
23529,,0.011501487754634887,0.011501487754634887,0.0,0.02054629865106368,,,,,,
23530,,0.015697718776226388,0.015697718776226388,0.0,0.020239394608793974,,,,,,
23531,,0.010204470893415696,0.010204470893415696,0.0,0.02008302040741069,,,,,,
23532,,0.010204470893415696,0.010204470893415696,0.0,0.020035332331639018,,,,,,
23533,,0.012493324177920151,0.012493324177920151,0.0,0.020052239956313573,,,,,,
23534,,0.011348897535667923,0.011348897535667923,0.0,0.020042876898229936,,,,,,
23535,,0.010662241550316587,0.010662241550316587,0.0,0.019952337420302706,,,,,,
23536,,0.005703059433890267,0.005703059433890267,0.0,0.019745667595067927,,,,,,
23537,,0.003566796368352776,0.003566796368352776,0.0,0.019368166709134146,,,,,,
23538,,0.0028038452735179575,0.0028038452735179575,0.0,0.018889703186230532,,,,,,
23539,,0.00791561760891124,0.00791561760891124,0.0,0.01826234467465716,,,,,,
23540,,0.008678568703746059,0.008678568703746059,0.0,0.01734582569639432,,,,,,
23541,,0.008220798046845168,0.008220798046845168,0.0,0.016394621214932237,,,,,,
23542,,0.006008239871824195,0.006008239871824195,0.0,0.015422589278841563,,,,,,
23543,,0.005245288776989376,0.005245288776989376,0.0,0.014535106719529591,,,,,,
23544,,0.002956435492484921,0.002956435492484921,0.0,0.013724362673187955,,,,,,
23545,,-0.0033760585946440713,-0.0033760585946440713,0.0,0.013055812851609245,,,,,,
23546,,-0.003147173266193626,-0.003147173266193626,0.0,0.012551890332116645,,,,,,
23547,,0.0014305333028152845,0.0014305333028152845,0.0,0.01204335030823517,,,,,,
23548,,0.008068207827878204,0.008068207827878204,0.0,0.01157685707740523,,,,,,
23549,,0.0075341420614938315,0.0075341420614938315,0.0,0.01124952637950623,,,,,,
23550,,-0.0032234683756771076,-0.0032234683756771076,0.0,0.011031397707204014,,,,,,
23551,,-0.003070878156710144,-0.003070878156710144,0.0,0.010902028027801935,,,,,,
23552,,5.722133211261138e-05,5.722133211261138e-05,0.0,0.010837600971777522,,,,,,
23553,,-0.0005531395437552433,-0.0005531395437552433,0.0,0.010788361402337592,,,,,,
23554,,0.0017357137407492118,0.0017357137407492118,0.0,0.010759555721884157,,,,,,
23555,,0.0009727626459143934,0.0009727626459143934,0.0,0.010756657441280465,,,,,,
23556,,0.0010490577553978753,0.0010490577553978753,0.0,0.010755693919393648,,,,,,
23557,,0.0005149919890135024,0.0005149919890135024,0.0,0.010748994526481854,,,,,,
23558,,-0.00581750209811549,-0.00581750209811549,0.0,0.01072501196553369,,,,,,
23559,,-0.0013160906385900617,-0.0013160906385900617,0.0,0.010693291181559485,,,,,,
23560,,0.0037193865873197396,0.0037193865873197396,0.0,0.01066114783406046,,,,,,
23561,,0.004940108339055449,0.004940108339055449,0.0,0.0106373044713431,,,,,,
23562,,0.0017357137407492118,0.0017357137407492118,0.0,0.010588422380337826,,,,,,
23563,,0.0008964675364309116,0.0008964675364309116,0.0,0.010542223592679941,,,,,,
23564,,-0.0028419928282596985,-0.0028419928282596985,0.0,0.01045749639738379,,,,,,
23565,,-9.53688868543523e-05,-9.53688868543523e-05,0.0,0.01036168152866851,,,,,,
23566,,0.0005912870984969842,0.0005912870984969842,0.0,0.01027250666445384,,,,,,
23567,,0.0056267643244067855,0.0056267643244067855,0.0,0.010189902109430084,,,,,,
23568,,0.007991912718394723,0.007991912718394723,0.0,0.010138986765195042,,,,,,
23569,,-0.00024795910582131597,-0.00024795910582131597,0.0,0.010086026755226804,,,,,,
23570,,0.002040894178683139,0.002040894178683139,0.0,0.010022215186335266,,,,,,
23571,,0.0010490577553978753,0.0010490577553978753,0.0,0.009921719597546471,,,,,,
23572,,0.006847486076142495,0.006847486076142495,0.0,0.00981761489010081,,,,,,
23573,,0.004329747463187594,0.004329747463187594,0.0,0.009749282879460789,,,,,,
23574,,0.009441519798580877,0.009441519798580877,0.0,0.009739265232690631,,,,,,
23575,,0.004329747463187594,0.004329747463187594,0.0,0.0097077028211984,,,,,,
23576,,0.0033379110399023304,0.0033379110399023304,0.0,0.009649910463352193,,,,,,
23577,,0.00036240177004653873,0.00036240177004653873,0.0,0.009595347120133269,,,,,,
23578,,0.0023460746166170665,0.0023460746166170665,0.0,0.0095146527591751,,,,,,
23579,,0.007610437170977313,0.007610437170977313,0.0,0.009483416959237006,,,,,,
23580,,0.004787518120088485,0.004787518120088485,0.0,0.009455424286901232,,,,,,
23581,,0.00791561760891124,0.00791561760891124,0.0,0.009425574494421893,,,,,,
23582,,0.005550469214923304,0.005550469214923304,0.0,0.009368852615045676,,,,,,
23583,,0.0047112230106050035,0.0047112230106050035,0.0,0.009306173120839024,,,,,,
23584,,0.001201647974364839,0.001201647974364839,0.0,0.009248770296341621,,,,,,
23585,,0.0009727626459143934,0.0009727626459143934,0.0,0.009211328109633562,,,,,,
23586,,0.00745784695201035,0.00745784695201035,0.0,0.009204752283753625,,,,,,
23587,,0.005092698558022413,0.005092698558022413,0.0,0.009201912988826983,,,,,,
23588,,0.007305256733043386,0.007305256733043386,0.0,0.009193115237175739,,,,,,
23589,,0.003566796368352776,0.003566796368352776,0.0,0.009124468753305387,,,,,,
23590,,0.0028038452735179575,0.0028038452735179575,0.0,0.009082427460961783,,,,,,
23591,,0.0008201724269474298,0.0008201724269474298,0.0,0.009013818239151837,,,,,,
23592,,0.00043869687953002057,0.00043869687953002057,0.0,0.00896155579134532,,,,,,
23593,,0.0010490577553978753,0.0010490577553978753,0.0,0.008946902901404034,,,,,,
23594,,0.007839322499427759,0.007839322499427759,0.0,0.00894121108288803,,,,,,
23595,,0.00913633936064695,0.00913633936064695,0.0,0.00893060442135548,,,,,,
23596,,0.008602273594262577,0.008602273594262577,0.0,0.008928636060019942,,,,,,
23597,,0.004940108339055449,0.004940108339055449,0.0,0.008909957546508578,,,,,,
23598,,-0.000705729762722207,-0.000705729762722207,0.0,0.008859337211294348,,,,,,
23599,,0.0007438773174639479,0.0007438773174639479,0.0,0.008811641228161669,,,,,,
23600,,0.0014305333028152845,0.0014305333028152845,0.0,0.008785251070194408,,,0.003479056992446784,52.0,,
23601,,0.008602273594262577,0.008602273594262577,0.0,0.00878775699886497,,,,,,
23602,,0.006771190966659013,0.006771190966659013,0.0,0.008769323876666709,,,,,,
23603,,0.006389715419241604,0.006389715419241604,0.0,0.008747057374651337,,,,,,
23604,,0.004482337682154558,0.004482337682154558,0.0,0.008714607381052609,,,,,,
23605,,0.006847486076142495,0.006847486076142495,0.0,0.008715626675030428,,,,,,
23606,,0.007228961623559904,0.007228961623559904,0.0,0.008708527618617063,,,,,,
23607,,0.005703059433890267,0.005703059433890267,0.0,0.008692918401423513,,,,,,
23608,,0.009746700236514805,0.009746700236514805,0.0,0.008679515688364394,,,,,,
23609,,0.008907454032196505,0.008907454032196505,0.0,0.00862623423834998,,,,,,
23610,,0.004863813229571967,0.004863813229571967,0.0,0.00859881523679024,,,,,,
23611,,0.0007438773174639479,0.0007438773174639479,0.0,0.008563182549427974,,,,,,
23612,,0.005703059433890267,0.005703059433890267,0.0,0.008531757470742772,,,,,,
23613,,0.008220798046845168,0.008220798046845168,0.0,0.008514353012570699,,,,,,
23614,,0.011272602426184442,0.011272602426184442,0.0,0.008531693693293372,,,,,,
23615,,0.011577782864118369,0.011577782864118369,0.0,0.008558997283315833,,,,,,
23616,,0.009288929579613914,0.009288929579613914,0.0,0.008554463091569639,,,,,,
23617,,0.00539787899595634,0.00539787899595634,0.0,0.008487548406072798,,,,,,
23618,,0.006847486076142495,0.006847486076142495,0.0,0.008406922097276493,,,,,,
23619,,0.00829709315632865,0.00829709315632865,0.0,0.008364558706255427,,,,,,
23620,,0.00539787899595634,0.00539787899595634,0.0,0.008330499668533926,,,,,,
23621,,0.008449683375295614,0.008449683375295614,0.0,0.008326613859426842,,,,,,
23622,,0.006923781185625977,0.006923781185625977,0.0,0.008309431512692419,,,,,,
23623,,0.0051689936675058945,0.0051689936675058945,0.0,0.008259101882890764,,,,,,
23624,,0.003948271915770185,0.003948271915770185,0.0,0.008207294273981319,,,,,,
23625,,0.00913633936064695,0.00913633936064695,0.0,0.008160136160688935,,,,,,
23626,,0.008602273594262577,0.008602273594262577,0.0,0.008147348066991116,,,,,,
23627,,0.0075341420614938315,0.0075341420614938315,0.0,0.008122819966922521,,,,,,
23628,,0.012264438849469705,0.012264438849469705,0.0,0.008143940473592922,,,,,,
23629,,0.008831158922713023,0.008831158922713023,0.0,0.008113373835954207,,,,,,
23630,,0.005092698558022413,0.005092698558022413,0.0,0.008084116953081984,,,,,,
23631,,-0.0020027466239413982,-0.0020027466239413982,0.0,0.008060210483187447,,,,,,
23632,,0.0037956816968032214,0.0037956816968032214,0.0,0.008051018608364437,,,,,,
23633,,0.009670405127031323,0.009670405127031323,0.0,0.008063739770439584,,,,,,
23634,,0.008678568703746059,0.008678568703746059,0.0,0.008076936774746394,,,,,,
23635,,0.011806668192568814,0.011806668192568814,0.0,0.00810943314015895,,,,,,
23636,,0.005855649652857231,0.005855649652857231,0.0,0.008107284139443657,,,,,,
23637,,0.01119630731670096,0.01119630731670096,0.0,0.008127589516347221,,,,,,
23638,,0.005703059433890267,0.005703059433890267,0.0,0.008109856006423945,,,,,,
23639,,-1.907377737087046e-05,-1.907377737087046e-05,0.0,0.008092222027449426,,,,,,
23640,,0.004406042572671076,0.004406042572671076,0.0,0.008088344558158789,,,,,,
23641,,0.010051880674448732,0.010051880674448732,0.0,0.008114028872968611,,,,,,
23642,,0.00791561760891124,0.00791561760891124,0.0,0.008128149997914592,,,,,,
23643,,0.009670405127031323,0.009670405127031323,0.0,0.008126749500071981,,,,,,
23644,,0.005092698558022413,0.005092698558022413,0.0,0.008093130516158224,,,,,,
23645,,0.011043717097733996,0.011043717097733996,0.0,0.008112848208487428,,,,,,
23646,,0.006694895857175531,0.006694895857175531,0.0,0.008123328592657582,,,,,,
23647,,0.006618600747692049,0.006618600747692049,0.0,0.008132132974485857,,,,,,
23648,,0.008602273594262577,0.008602273594262577,0.0,0.008146439411231514,,,,,,
23649,,0.007000076295109459,0.007000076295109459,0.0,0.008141978538293463,,,,,,
23650,,0.00951781490806436,0.00951781490806436,0.0,0.008146581540998224,,,,,,
23651,,0.002117189288166621,0.002117189288166621,0.0,0.00813215398149892,,,,,,
23652,,0.0037193865873197396,0.0037193865873197396,0.0,0.00812656420212445,,,,,,
23653,,0.0075341420614938315,0.0075341420614938315,0.0,0.008134702429809867,,,,,,
23654,,0.01287479972533756,0.01287479972533756,0.0,0.008177169512368325,,,,,,
23655,,0.01035706111238266,0.01035706111238266,0.0,0.00820158598824385,,,,,,
23656,,0.008754863813229541,0.008754863813229541,0.0,0.008213614871498241,,,,,,
23657,,0.007763027389944278,0.007763027389944278,0.0,0.008208383502271405,,,,,,
23658,,0.0037193865873197396,0.0037193865873197396,0.0,0.008187448555783981,,,,,,
23659,,0.0033379110399023304,0.0033379110399023304,0.0,0.008181418635829035,,,,,,
23660,,0.006008239871824195,0.006008239871824195,0.0,0.008186287754953683,,,,,,
23661,,0.013637750820172378,0.013637750820172378,0.0,0.008235425259482058,,,,,,
23662,,0.004863813229571967,0.004863813229571967,0.0,0.008237147563209698,,,,,,
23663,,0.0047112230106050035,0.0047112230106050035,0.0,0.008225654624306798,,,,,,
23664,,0.0028038452735179575,0.0028038452735179575,0.0,0.008199965783404393,,,,,,
23665,,0.0075341420614938315,0.0075341420614938315,0.0,0.008184209958740928,,,,,,
23666,,0.007686732280460796,0.007686732280460796,0.0,0.008169477881077488,,,,,,
23667,,0.007228961623559904,0.007228961623559904,0.0,0.008179771231175754,,,,,,
23668,,0.008754863813229541,0.008754863813229541,0.0,0.008198410085522072,,,,,,
23669,,0.006618600747692049,0.006618600747692049,0.0,0.008209034811773602,,,,,,
23670,,0.006389715419241604,0.006389715419241604,0.0,0.008205565704212606,,,,,,
23671,,0.00013351644159609322,0.00013351644159609322,0.0,0.00817341826918187,,,,,,
23672,,0.0018120088502326936,0.0018120088502326936,0.0,0.008163295951031716,,,,,,
23673,,0.0047112230106050035,0.0047112230106050035,0.0,0.00814677492669848,,,,,,
23674,,0.008144502937361686,0.008144502937361686,0.0,0.008147268854880301,,,,,,
23675,,0.009899290455481768,0.009899290455481768,0.0,0.008170866409123336,,,,,,
23676,,0.006389715419241604,0.006389715419241604,0.0,0.008170995724598012,,,,,,
23677,,0.007228961623559904,0.007228961623559904,0.0,0.008160207494281582,,,,,,
23678,,0.003490501258869294,0.003490501258869294,0.0,0.00813948678179839,,,,,,
23679,,0.006847486076142495,0.006847486076142495,0.0,0.008137606967272745,,,,,,
23680,,0.005779354543373749,0.005779354543373749,0.0,0.008140503473251995,,,,,,
23681,,0.006923781185625977,0.006923781185625977,0.0,0.008150255860965976,,,,,,
23682,,0.0047112230106050035,0.0047112230106050035,0.0,0.00815015959814579,,,,,,
23683,,0.006008239871824195,0.006008239871824195,0.0,0.008154336669337474,,,,,,
23684,,0.003109025711451885,0.003109025711451885,0.0,0.008151826957905024,,,,,,
23685,,0.006771190966659013,0.006771190966659013,0.0,0.008151410149939229,,,,,,
23686,,0.008602273594262577,0.008602273594262577,0.0,0.008160121428673629,,,,,,
23687,,0.008754863813229541,0.008754863813229541,0.0,0.008178251921742437,,,,,,
23688,,0.008907454032196505,0.008907454032196505,0.0,0.00819931452517092,,,,,,
23689,,0.00829709315632865,0.00829709315632865,0.0,0.008209279906582588,,,,,,
23690,,0.006313420309758122,0.006313420309758122,0.0,0.008201094559929963,,,,,,
23691,,0.0023460746166170665,0.0023460746166170665,0.0,0.008174701640358436,,,,,,
23692,,0.0028038452735179575,0.0028038452735179575,0.0,0.008168931853090412,,,,,,
23693,,0.008144502937361686,0.008144502937361686,0.0,0.008186472473953583,,,,,,
23694,,0.011348897535667923,0.011348897535667923,0.0,0.00822022156101084,,,,,,
23695,,0.008831158922713023,0.008831158922713023,0.0,0.008239680431533636,,,,,,
23696,,0.005550469214923304,0.005550469214923304,0.0,0.00824311983074667,,,,,,
23697,,0.007228961623559904,0.007228961623559904,0.0,0.008252210438194863,,,,,,
23698,,0.004024567025253667,0.004024567025253667,0.0,0.008230832737512826,,,,,,
23699,,0.006313420309758122,0.006313420309758122,0.0,0.00821761494014878,,,,,,
23700,,0.00665674830243379,0.00665674830243379,0.0,0.008222577278224286,,,0.0036621652552071412,52.0,,
23701,,0.009250782024872173,0.009250782024872173,0.0,0.008227167487048203,,,,,,
23702,,0.005207141222247635,0.005207141222247635,0.0,0.0082236714066793,,,,,,
23703,,0.009861142900740028,0.009861142900740028,0.0,0.008235987621262122,,,,,,
23704,,0.004825665674830226,0.004825665674830226,0.0,0.008211006153313124,,,,,,
23705,,0.0032234683756771076,0.0032234683756771076,0.0,0.008185106691444956,,,,,,
23706,,0.007190814068818163,0.007190814068818163,0.0,0.008181386154999625,,,,,,
23707,,0.009632257572289582,0.009632257572289582,0.0,0.008191405016381922,,,,,,
23708,,0.01077668421454181,0.01077668421454181,0.0,0.00821390681763328,,,,,,
23709,,0.008411535820553873,0.008411535820553873,0.0,0.008208847517411553,,,,,,
23710,,0.0042153047989623715,0.0042153047989623715,0.0,0.008179160911147865,,,,,,
23711,,-5.722133211261138e-05,-5.722133211261138e-05,0.0,0.008132050501983921,,,,,,
23712,,0.004444190127412817,0.004444190127412817,0.0,0.008103998672416917,,,,,,
23713,,0.005054551003280672,0.005054551003280672,0.0,0.008066033724249981,,,,,,
23714,,0.010624093995574846,0.010624093995574846,0.0,0.008076326517766868,,,,,,
23715,,0.011921110856794037,0.011921110856794037,0.0,0.008093386938577463,,,,,,
23716,,0.008945601586938245,0.008945601586938245,0.0,0.008082340120238514,,,,,,
23717,,0.00665674830243379,0.00665674830243379,0.0,0.008059817198070198,,,,,,
23718,,-5.722133211261138e-05,-5.722133211261138e-05,0.0,0.008018890710798667,,,,,,
23719,,0.0017738612954909527,0.0017738612954909527,0.0,0.00799534712085033,,,,,,
23720,,0.006809338521400754,0.006809338521400754,0.0,0.008002205969120066,,,,,,
23721,,0.013065537499046265,0.013065537499046265,0.0,0.008047523053177377,,,,,,
23722,,0.006733043411917272,0.006733043411917272,0.0,0.008046961673477302,,,,,,
23723,,0.005283436331731117,0.005283436331731117,0.0,0.008024415145488913,,,,,,
23724,,0.005893797207598972,0.005893797207598972,0.0,0.007964554188845322,,,,,,
23725,,0.006961928740367718,0.006961928740367718,0.0,0.007949133288094108,,,,,,
23726,,0.005893797207598972,0.005893797207598972,0.0,0.007945952035267916,,,,,,
23727,,0.007724879835202537,0.007724879835202537,0.0,0.007949591742081805,,,,,,
23728,,0.009021896696421727,0.009021896696421727,0.0,0.00796184320428627,,,,,,
23729,,0.005512321660181563,0.005512321660181563,0.0,0.007948650131752303,,,,,,
23730,,0.006275272755016381,0.006275272755016381,0.0,0.00793134619155044,,,,,,
23731,,0.006961928740367718,0.006961928740367718,0.0,0.007920974438682983,,,,,,
23732,,0.008411535820553873,0.008411535820553873,0.0,0.007929970777087111,,,,,,
23733,,0.009784847791256546,0.009784847791256546,0.0,0.007941272578872472,,,,,,
23734,,0.008030060273136463,0.008030060273136463,0.0,0.007946652720813994,,,,,,
23735,,0.008182650492103427,0.008182650492103427,0.0,0.007954061874580034,,,,,,
23736,,0.009174486915388691,0.009174486915388691,0.0,0.007934383385048566,,,,,,
23737,,0.007190814068818163,0.007190814068818163,0.0,0.007889785392814357,,,,,,
23738,,0.00207904173342488,0.00207904173342488,0.0,0.007788678068950963,,,,,,
23739,,0.0017738612954909527,0.0017738612954909527,0.0,0.007746937477215629,,,,,,
23740,,0.005741206988632008,0.005741206988632008,0.0,0.0077199975348795,,,,,,
23741,,0.013447013046463674,0.013447013046463674,0.0,0.00775611610547846,,,,,,
23742,,0.012073701075761,0.012073701075761,0.0,0.007775467031090124,,,,,,
23743,,0.008487830930037354,0.008487830930037354,0.0,0.007750859211789103,,,,,,
23744,,0.004444190127412817,0.004444190127412817,0.0,0.007687697741065775,,,,,,
23745,,0.0010109102006561344,0.0010109102006561344,0.0,0.007621364376633723,,,,,,
23746,,-0.0007438773174639479,-0.0007438773174639479,0.0,0.00756401889072532,,,,,,
23747,,0.006351567864499863,0.006351567864499863,0.0,0.007479783575010029,,,,,,
23748,,0.009327077134355655,0.009327077134355655,0.0,0.007459676690314013,,,,,,
23749,,0.007419699397268609,0.007419699397268609,0.0,0.007420194825666005,,,,,,
23750,,0.007114518959334681,0.007114518959334681,0.0,0.0073398070680781215,,,,,,
23751,,0.005512321660181563,0.005512321660181563,0.0,0.007247466875314632,,,,,,
23752,,0.004367895017929335,0.004367895017929335,0.0,0.007206827801533916,,,,,,
23753,,0.0019264515144579164,0.0019264515144579164,0.0,0.007159553200027481,,,,,,
23754,,0.0070382238498511995,0.0070382238498511995,0.0,0.0071160777736077215,,,,,,
23755,,0.004444190127412817,0.004444190127412817,0.0,0.007033398352614757,,,,,,
23756,,0.006275272755016381,0.006275272755016381,0.0,0.006997824409173357,,,,,,
23757,,0.008869306477454764,0.008869306477454764,0.0,0.006956342733395682,,,,,,
23758,,0.0023079270618753256,0.0023079270618753256,0.0,0.006914882138101457,,,,,,
23759,,0.005512321660181563,0.005512321660181563,0.0,0.006882772544169292,,,,,,
23760,,0.009327077134355655,0.009327077134355655,0.0,0.006832233166297243,,,,,,
23761,,0.008411535820553873,0.008411535820553873,0.0,0.006821604751126433,,,,,,
23762,,0.004444190127412817,0.004444190127412817,0.0,0.006794661144959741,,,,,,
23763,,0.0065804531929503085,0.0065804531929503085,0.0,0.006758481252219928,,,,,,
23764,,0.007114518959334681,0.007114518959334681,0.0,0.006733286792582298,,,,,,
23765,,0.005741206988632008,0.005741206988632008,0.0,0.006707174225175205,,,,,,
23766,,0.004825665674830226,0.004825665674830226,0.0,0.006704179411017432,,,,,,
23767,,0.004444190127412817,0.004444190127412817,0.0,0.0067064581956274285,,,,,,
23768,,0.009784847791256546,0.009784847791256546,0.0,0.00673488499298561,,,,,,
23769,,0.01161593041886011,0.01161593041886011,0.0,0.0067581732440370286,,,,,,
23770,,0.0103952086671244,0.0103952086671244,0.0,0.0067686974842520314,,,,,,
23771,,0.004444190127412817,0.004444190127412817,0.0,0.0067533181541678915,,,,,,
23772,,0.003986419470511926,0.003986419470511926,0.0,0.0067468101947328095,,,,,,
23773,,0.0046730754558632626,0.0046730754558632626,0.0,0.006744981250086684,,,,,,
23774,,0.008030060273136463,0.008030060273136463,0.0,0.006762922873347187,,,,,,
23775,,0.01077668421454181,0.01077668421454181,0.0,0.00679650744162006,,,,,,
23776,,0.01161593041886011,0.01161593041886011,0.0,0.00683638069221593,,,,,,
23777,,0.006809338521400754,0.006809338521400754,0.0,0.006850459803170372,,,,,,
23778,,0.0022316319523918438,0.0022316319523918438,0.0,0.006831356123574683,,,,,,
23779,,0.007190814068818163,0.007190814068818163,0.0,0.006829747147398919,,,,,,
23780,,0.0042153047989623715,0.0042153047989623715,0.0,0.0068320951807664555,,,,,,
23781,,0.009784847791256546,0.009784847791256546,0.0,0.006859504229210076,,,,,,
23782,,0.010166323338673955,0.010166323338673955,0.0,0.0068921803384807455,,,,,,
23783,,0.009632257572289582,0.009632257572289582,0.0,0.006921286912491622,,,,,,
23784,,0.0018501564049744346,0.0018501564049744346,0.0,0.0069214158068146465,,,,,,
23785,,0.00581750209811549,0.00581750209811549,0.0,0.00693174058095635,,,,,,
23786,,0.0056649118791485265,0.0056649118791485265,0.0,0.006941452994498087,,,,,,
23787,,0.007419699397268609,0.007419699397268609,0.0,0.006958589858274687,,,,,,
23788,,0.0112344548714427,0.0112344548714427,0.0,0.006987387206277642,,,,,,
23789,,0.007572289616235572,0.007572289616235572,0.0,0.007004666416247173,,,,,,
23790,,0.00909819180590521,0.00909819180590521,0.0,0.0070260305220374245,,,,,,
23791,,0.0006294346532387252,0.0006294346532387252,0.0,0.007018598164194352,,,,,,
23792,,0.0032234683756771076,0.0032234683756771076,0.0,0.007020883039339202,,,,,,
23793,,0.002994583047226662,0.002994583047226662,0.0,0.007023410407673401,,,,,,
23794,,0.010242618448157437,0.010242618448157437,0.0,0.00705331925346534,,,,,,
23795,,0.009632257572289582,0.009632257572289582,0.0,0.00708185469557187,,,,,,
23796,,0.00497825589379719,0.00497825589379719,0.0,0.007089351038867087,,,,,,
23797,,0.008487830930037354,0.008487830930037354,0.0,0.007101723419785611,,,,,,
23798,,0.0042153047989623715,0.0042153047989623715,0.0,0.007087597096278376,,,,,,
23799,,0.008564126039520836,0.008564126039520836,0.0,0.0071100389129102656,,,,,,
23800,,0.008983749141679986,0.008983749141679986,0.0,0.007133403592927108,,,0.006591897459372854,97.0,,
23801,,0.00951781490806436,0.00951781490806436,0.0,0.007160623317219471,,,,,,
23802,,0.004634927901121522,0.004634927901121522,0.0,0.007152906231504567,,,,,,
23803,,0.003490501258869294,0.003490501258869294,0.0,0.0071509112900517095,,,,,,
23804,,0.0018120088502326936,0.0018120088502326936,0.0,0.007124761934680252,,,,,,
23805,,0.005474174105439822,0.005474174105439822,0.0,0.0071281845279973196,,,,,,
23806,,0.008373388265812132,0.008373388265812132,0.0,0.0071461468346452044,,,,,,
23807,,0.01165407797360185,0.01165407797360185,0.0,0.007187305098243068,,,,,,
23808,,0.015850308995193352,0.015850308995193352,0.0,0.007261249078510635,,,,,,
23809,,0.009212634470130432,0.009212634470130432,0.0,0.007269314201666421,,,,,,
23810,,0.007991912718394723,0.007991912718394723,0.0,0.007281550241217021,,,,,,
23811,,0.0007438773174639479,0.0007438773174639479,0.0,0.007262985477859486,,,,,,
23812,,0.007305256733043386,0.007305256733043386,0.0,0.007269734586177598,,,,,,
23813,,0.006389715419241604,0.006389715419241604,0.0,0.0072753043445022295,,,,,,
23814,,0.010585946440833105,0.010585946440833105,0.0,0.0073082831399585305,,,,,,
23815,,0.011501487754634887,0.011501487754634887,0.0,0.007347246901651168,,,,,,
23816,,0.010585946440833105,0.010585946440833105,0.0,0.007363928328615808,,,,,,
23817,,0.005321583886472858,0.005321583886472858,0.0,0.007364631982636801,,,,,,
23818,,0.006313420309758122,0.006313420309758122,0.0,0.007360643720430999,,,,,,
23819,,0.0060845349813076766,0.0060845349813076766,0.0,0.007367816916009769,,,,,,
23820,,0.008983749141679986,0.008983749141679986,0.0,0.007389279309779734,,,,,,
23821,,0.008602273594262577,0.008602273594262577,0.0,0.007410820418499285,,,,,,
23822,,0.00539787899595634,0.00539787899595634,0.0,0.007419306271334749,,,,,,
23823,,0.0075341420614938315,0.0075341420614938315,0.0,0.007435597999529037,,,,,,
23824,,0.003566796368352776,0.003566796368352776,0.0,0.00742133648737128,,,,,,
23825,,0.002956435492484921,0.002956435492484921,0.0,0.007399412997702155,,,,,,
23826,,0.0005912870984969842,0.0005912870984969842,0.0,0.0073777433903752555,,,,,,
23827,,0.0013542381933318026,0.0013542381933318026,0.0,0.007371089744091765,,,,,,
23828,,0.004329747463187594,0.004329747463187594,0.0,0.007376469752486939,,,,,,
23829,,0.004787518120088485,0.004787518120088485,0.0,0.007383058562163824,,,,,,
23830,,0.0009727626459143934,0.0009727626459143934,0.0,0.007382734617680677,,,,,,
23831,,-0.0019264515144579164,-0.0019264515144579164,0.0,0.007362008617844595,,,,,,
23832,,0.0015068284122987663,0.0015068284122987663,0.0,0.007349129143699333,,,,,,
23833,,-0.00017166399633783413,-0.00017166399633783413,0.0,0.007337050649796448,,,,,,
23834,,0.0005912870984969842,0.0005912870984969842,0.0,0.007331198989667094,,,,,,
23835,,-0.0018501564049744346,-0.0018501564049744346,0.0,0.007318299011549283,,,,,,
23836,,-0.002613107499809253,-0.002613107499809253,0.0,0.007304791620339111,,,,,,
23837,,0.002040894178683139,0.002040894178683139,0.0,0.007296346883426067,,,,,,
23838,,-0.00040054932478827965,-0.00040054932478827965,0.0,0.007268035491471276,,,,,,
23839,,-0.001621271076523989,-0.001621271076523989,0.0,0.007245053473197715,,,,,,
23840,,0.005016403448538931,0.005016403448538931,0.0,0.007245505829015978,,,,,,
23841,,0.006923781185625977,0.006923781185625977,0.0,0.007259709234102204,,,,,,
23842,,0.005931944762340713,0.005931944762340713,0.0,0.0072605066476137525,,,,,,
23843,,0.0014305333028152845,0.0014305333028152845,0.0,0.007240857793411381,,,,,,
23844,,-0.0007820248722056888,-0.0007820248722056888,0.0,0.007202790812339877,,,,,,
23845,,0.0036430914778362578,0.0036430914778362578,0.0,0.007166246977664169,,,,,,
23846,,0.006313420309758122,0.006313420309758122,0.0,0.007152149900127395,,,,,,
23847,,0.012111848630502742,0.012111848630502742,0.0,0.007187793658027795,,,,,,
23848,,0.015163653009842015,0.015163653009842015,0.0,0.007242944144124405,,,,,,
23849,,0.011043717097733996,0.011043717097733996,0.0,0.007258870766088587,,,,,,
23850,,0.00997558556496525,0.00997558556496525,0.0,0.007279916481074708,,,,,,
23851,,0.005092698558022413,0.005092698558022413,0.0,0.00726632816277079,,,,,,
23852,,0.015163653009842015,0.015163653009842015,0.0,0.007320575045595187,,,,,,
23853,,0.015316243228808977,0.015316243228808977,0.0,0.007382045545632776,,,,,,
23854,,0.018062867170214325,0.018062867170214325,0.0,0.0074729760965125975,,,,,,
23855,,0.01409552147707327,0.01409552147707327,0.0,0.007506416538905932,,,,,,
23856,,0.011959258411535778,0.011959258411535778,0.0,0.007526380063986608,,,,,,
23857,,0.010585946440833105,0.010585946440833105,0.0,0.007542335656288464,,,,,,
23858,,0.012188143739986224,0.012188143739986224,0.0,0.007541797915190602,,,,,,
23859,,0.013942931258106306,0.013942931258106306,0.0,0.007575280335369983,,,,,,
23860,,0.015545128557259423,0.015545128557259423,0.0,0.007636934292699089,,,,,,
23861,,0.021038376440070117,0.021038376440070117,0.0,0.007760781653014182,,,,,,
23862,,0.015392538338292459,0.015392538338292459,0.0,0.007822865416889887,,,,,,
23863,,0.01493476768139157,0.01493476768139157,0.0,0.007858778507933366,,,,,,
23864,,0.009288929579613914,0.009288929579613914,0.0,0.00786181154432287,,,,,,
23865,,0.010280766002899178,0.010280766002899178,0.0,0.007852486537850973,,,,,,
23866,,0.010280766002899178,0.010280766002899178,0.0,0.007872229899819125,,,,,,
23867,,0.010585946440833105,0.010585946440833105,0.0,0.007868557624718227,,,,,,
23868,,0.012645914396887115,0.012645914396887115,0.0,0.007903675549892984,,,,,,
23869,,0.0070763714045929405,0.0070763714045929405,0.0,0.007917436652588051,,,,,,
23870,,0.007839322499427759,0.007839322499427759,0.0,0.007928971776663518,,,,,,
23871,,0.010738536659800069,0.010738536659800069,0.0,0.00793288487318553,,,,,,
23872,,0.014019226367589788,0.014019226367589788,0.0,0.007969489116896104,,,,,,
23873,,0.012340733958953187,0.012340733958953187,0.0,0.007985506174836138,,,,,,
23874,,0.012188143739986224,0.012188143739986224,0.0,0.008018816542017656,,,,,,
23875,,0.00913633936064695,0.00913633936064695,0.0,0.008008374779083892,,,,,,
23876,,-0.0003242542153047978,-0.0003242542153047978,0.0,0.007996227052907413,,,,,,
23877,,0.0007438773174639479,0.0007438773174639479,0.0,0.007984459445476409,,,,,,
23878,,-9.53688868543523e-05,-9.53688868543523e-05,0.0,0.007964288851852113,,,,,,
23879,,0.004100862134737149,0.004100862134737149,0.0,0.007955499135197646,,,,,,
23880,,0.012569619287403633,0.012569619287403633,0.0,0.00797389731265494,,,,,,
23881,,0.016384374761577725,0.016384374761577725,0.0,0.008045539965391035,,,,,,
23882,,0.010051880674448732,0.010051880674448732,0.0,0.00806906883682574,,,,,,
23883,,0.0037956816968032214,0.0037956816968032214,0.0,0.008057649468033225,,,,,,
23884,,-0.0026894026092927348,-0.0026894026092927348,0.0,0.0080147654111042,,,,,,
23885,,-0.0012397955291065799,-0.0012397955291065799,0.0,0.007986035430110592,,,,,,
23886,,0.0018883039597161755,0.0018883039597161755,0.0,0.007966116637899348,,,,,,
23887,,0.002117189288166621,0.002117189288166621,0.0,0.00795087941064623,,,,,,
23888,,0.002040894178683139,0.002040894178683139,0.0,0.007948235405768958,,,,,,
23889,,0.004634927901121522,0.004634927901121522,0.0,0.007951063232595323,,,,,,
23890,,0.00539787899595634,0.00539787899595634,0.0,0.007949159554401175,,,,,,
23891,,0.0037193865873197396,0.0037193865873197396,0.0,0.007901939014119352,,,,,,
23892,,0.007305256733043386,0.007305256733043386,0.0,0.007910108375792953,,,,,,
23893,,0.0033379110399023304,0.0033379110399023304,0.0,0.007907069859836309,,,,,,
23894,,0.0042534523537041125,0.0042534523537041125,0.0,0.007909882007398889,,,,,,
23895,,0.005321583886472858,0.005321583886472858,0.0,0.007902060720162677,,,,,,
23896,,-0.0016975661860074709,-0.0016975661860074709,0.0,0.007886583409592607,,,,,,
23897,,-0.0024605172808422893,-0.0024605172808422893,0.0,0.00787383718695091,,,,,,
23898,,-0.003147173266193626,-0.003147173266193626,0.0,0.007855388300229998,,,,,,
23899,,0.0032616159304188486,0.0032616159304188486,0.0,0.00784620403721221,,,,,,
23900,,0.011997405966277519,0.011997405966277519,0.0,0.007874720251566917,,,0.019684138246738384,51.0,,
23901,,0.020618753337910967,0.020618753337910967,0.0,0.007991216793093421,,,,,,
23902,,0.01573586633096813,0.01573586633096813,0.0,0.008057410754401403,,,,,,
23903,,0.007724879835202537,0.007724879835202537,0.0,0.00806751613118546,,,,,,
23904,,0.0010872053101396162,0.0010872053101396162,0.0,0.008049941098484307,,,,,,
23905,,0.003910124361028444,0.003910124361028444,0.0,0.00802757476221589,,,,,,
23906,,0.00993743801022351,0.00993743801022351,0.0,0.008043245673166643,,,,,,
23907,,0.009403372243839137,0.009403372243839137,0.0,0.008053014489308122,,,,,,
23908,,0.012149996185244483,0.012149996185244483,0.0,0.008089493602739294,,,,,,
23909,,0.010013733119706991,0.010013733119706991,0.0,0.008103827688638881,,,,,,
23910,,0.011997405966277519,0.011997405966277519,0.0,0.00813342597172343,,,,,,
23911,,0.007648584725719055,0.007648584725719055,0.0,0.008136248534911737,,,,,,
23912,,0.012226291294727964,0.012226291294727964,0.0,0.008170187275697823,,,,,,
23913,,0.01283665217059582,0.01283665217059582,0.0,0.008204355025967095,,,,,,
23914,,0.01245517662317841,0.01245517662317841,0.0,0.008242808961920726,,,,,,
23915,,0.01245517662317841,0.01245517662317841,0.0,0.008271580286854752,,,,,,
23916,,0.010624093995574846,0.010624093995574846,0.0,0.008281790282160856,,,,,,
23917,,0.006809338521400754,0.006809338521400754,0.0,0.008273838028120154,,,,,,
23918,,0.005588616769665045,0.005588616769665045,0.0,0.008261187648759275,,,,,,
23919,,0.008945601586938245,0.008945601586938245,0.0,0.008264129651838297,,,,,,
23920,,0.01161593041886011,0.01161593041886011,0.0,0.008289100625425434,,,,,,
23921,,0.015506981002517684,0.015506981002517684,0.0,0.008350494883732087,,,,,,
23922,,0.006961928740367718,0.006961928740367718,0.0,0.00836105953557592,,,,,,
23923,,0.006046387426565936,0.006046387426565936,0.0,0.008353314541579027,,,,,,
23924,,0.005283436331731117,0.005283436331731117,0.0,0.008327018858282477,,,,,,
23925,,0.010471503776607882,0.010471503776607882,0.0,0.008335280942201794,,,,,,
23926,,0.013065537499046265,0.013065537499046265,0.0,0.008371688700428427,,,,,,
23927,,0.012912947280079301,0.012912947280079301,0.0,0.008401365264719941,,,,,,
23928,,0.011463340199893146,0.011463340199893146,0.0,0.008431124232731636,,,,,,
23929,,0.006427862973983345,0.006427862973983345,0.0,0.008431500198347344,,,,,,
23930,,0.005283436331731117,0.005283436331731117,0.0,0.0084272713073836,,,,,,
23931,,0.0037575341420614805,0.0037575341420614805,0.0,0.00840881770189581,,,,,,
23932,,0.008258945601586909,0.008258945601586909,0.0,0.008419435420965588,,,,,,
23933,,0.0095559624628061,0.0095559624628061,0.0,0.008417905250398528,,,,,,
23934,,0.011921110856794037,0.011921110856794037,0.0,0.00844853613765562,,,,,,
23935,,0.010852979324025291,0.010852979324025291,0.0,0.008476125517611859,,,,,,
23936,,0.012760357061112337,0.012760357061112337,0.0,0.008504576971593967,,,,,,
23937,,0.015201800564583756,0.015201800564583756,0.0,0.008539859262559084,,,,,,
23938,,0.005970092317082454,0.005970092317082454,0.0,0.008519343772239549,,,,,,
23939,,0.00665674830243379,0.00665674830243379,0.0,0.008512593886172865,,,,,,
23940,,0.009479667353322618,0.009479667353322618,0.0,0.008530985434920585,,,,,,
23941,,0.013904783703364565,0.013904783703364565,0.0,0.00858011188952248,,,,,,
23942,,0.009632257572289582,0.009632257572289582,0.0,0.008598595226141932,,,,,,
23943,,0.011768520637827073,0.011768520637827073,0.0,0.008627104093861818,,,,,,
23944,,0.008945601586938245,0.008945601586938245,0.0,0.008618822974009122,,,,,,
23945,,0.010471503776607882,0.010471503776607882,0.0,0.00861063161912524,,,,,,
23946,,0.010242618448157437,0.010242618448157437,0.0,0.008616912623588,,,,,,
23947,,0.011844815747310555,0.011844815747310555,0.0,0.008641094810243596,,,,,,
23948,,0.01077668421454181,0.01077668421454181,0.0,0.008670262304314382,,,,,,
23949,,0.013370717936980192,0.013370717936980192,0.0,0.008714186996463341,,,,,,
23950,,0.011844815747310555,0.011844815747310555,0.0,0.008737588768258364,,,,,,
23951,,0.0065804531929503085,0.0065804531929503085,0.0,0.008705832456567716,,,,,,
23952,,0.00665674830243379,0.00665674830243379,0.0,0.008705577357572358,,,,,,
23953,,0.008869306477454764,0.008869306477454764,0.0,0.008718241156263205,,,,,,
23954,,0.00993743801022351,0.00993743801022351,0.0,0.00873418906073635,,,,,,
23955,,0.011310749980926182,0.011310749980926182,0.0,0.008753945217305058,,,,,,
23956,,0.010700389105058328,0.010700389105058328,0.0,0.008773730444769257,,,,,,
23957,,0.01161593041886011,0.01161593041886011,0.0,0.008792357262207107,,,,,,
23958,,0.006504158083466827,0.006504158083466827,0.0,0.008782686794117363,,,,,,
23959,,0.0061226825360494175,0.0061226825360494175,0.0,0.008784444412356956,,,,,,
23960,,0.0074959945067520906,0.0074959945067520906,0.0,0.008788603668404392,,,,,,
23961,,0.006733043411917272,0.006733043411917272,0.0,0.008787828277761523,,,,,,
23962,,0.008030060273136463,0.008030060273136463,0.0,0.008786276571077617,,,,,,
23963,,0.009861142900740028,0.009861142900740028,0.0,0.008786647421491382,,,,,,
23964,,0.008030060273136463,0.008030060273136463,0.0,0.008786647421491382,,,,,,
23965,,0.010852979324025291,0.010852979324025291,0.0,0.008799214678481273,,,,,,
23966,,0.010852979324025291,0.010852979324025291,0.0,0.00880751583947215,,,,,,
23967,,0.012760357061112337,0.012760357061112337,0.0,0.008834900165706929,,,,,,
23968,,0.011997405966277519,0.011997405966277519,0.0,0.008869187343570867,,,,,,
23969,,0.0074959945067520906,0.0074959945067520906,0.0,0.008882179203052515,,,,,,
23970,,0.0070382238498511995,0.0070382238498511995,0.0,0.008886235041308253,,,,,,
23971,,0.005054551003280672,0.005054551003280672,0.0,0.00884816762266756,,,,,,
23972,,0.006961928740367718,0.006961928740367718,0.0,0.008824228099817076,,,,,,
23973,,0.012073701075761,0.012073701075761,0.0,0.008842373609628423,,,,,,
23974,,0.019703212024109185,0.019703212024109185,0.0,0.008932502225068572,,,,,,
23975,,0.018101014724956066,0.018101014724956066,0.0,0.009011642680645658,,,,,,
23976,,0.01245517662317841,0.01245517662317841,0.0,0.00904885530740168,,,,,,
23977,,0.009861142900740028,0.009861142900740028,0.0,0.009062514688697789,,,,,,
23978,,0.006427862973983345,0.006427862973983345,0.0,0.009051551086296135,,,,,,
23979,,0.008945601586938245,0.008945601586938245,0.0,0.009057546595112785,,,,,,
23980,,0.004749370565346744,0.004749370565346744,0.0,0.00905080940770331,,,,,,
23981,,0.009861142900740028,0.009861142900740028,0.0,0.009066853431515589,,,,,,
23982,,0.00665674830243379,0.00665674830243379,0.0,0.00907290159120508,,,,,,
23983,,0.010090028229190473,0.010090028229190473,0.0,0.009096375869226682,,,,,,
23984,,0.006427862973983345,0.006427862973983345,0.0,0.009094411384000108,,,,,,
23985,,-0.0019645990691996573,-0.0019645990691996573,0.0,0.009090611989860076,,,,,,
23986,,-0.007610437170977313,-0.007610437170977313,0.0,0.009095044462048436,,,,,,
23987,,-0.012417029068436669,-0.012417029068436669,0.0,0.009113077030056767,,,,,,
23988,,-0.014248111696040233,-0.014248111696040233,0.0,0.009160112477808102,,,,,,
23989,,-0.016002899214160315,-0.016002899214160315,0.0,0.009213522442247891,,,,,,
23990,,-0.024013885709926092,-0.024013885709926092,0.0,0.009328344224108269,,,,,,
23991,,-0.030117494468604643,-0.030117494468604643,0.0,0.009521246472518008,,,,,,
23992,,-0.027904936293583666,-0.027904936293583666,0.0,0.009692979430104979,,,,,,
23993,,-0.027904936293583666,-0.027904936293583666,0.0,0.009856529210714822,,,,,,
23994,,-0.030193789578088125,-0.030193789578088125,0.0,0.010044643220414913,,,,,,
23995,,-0.03759441519798586,-0.03759441519798586,0.0,0.01033907653016931,,,,,,
23996,,-0.04362172884718093,-0.04362172884718093,0.0,0.010727000468677615,,,,,,
23997,,-0.05132753490501259,-0.05132753490501259,0.0,0.011244424511380111,,,,,,
23998,,-0.0675783932249944,-0.0675783932249944,0.0,0.012077939822301766,,,,,,
23999,,-0.06414511329823773,-0.06414511329823773,0.0,0.012774174133317107,,,,,,
24000,,-0.06296253910124376,-0.06296253910124376,0.0,0.01341438417911962,,,0.07631036850537881,255.0,,
24001,,-0.05701152056153199,-0.05701152056153199,0.0,0.013928087717771064,,,,,,
24002,,-0.0473220416571298,-0.0473220416571298,0.0,0.014270912710430482,,,,,,
24003,,-0.038776989394979824,-0.038776989394979824,0.0,0.014494883006821111,,,,,,
24004,,-0.03961623559929813,-0.03961623559929813,0.0,0.014718863958524689,,,,,,
24005,,-0.0468642710002289,-0.0468642710002289,0.0,0.015022948084806366,,,,,,
24006,,-0.04747463187609676,-0.04747463187609676,0.0,0.015326500740589409,,,,,,
24007,,-0.03435187304493788,-0.03435187304493788,0.0,0.015486467841788545,,,,,,
24008,,-0.030460822461280308,-0.030460822461280308,0.0,0.015615479966344346,,,,,,
24009,,-0.029926756694895935,-0.029926756694895935,0.0,0.015732525476878142,,,,,,
24010,,-0.008945601586938245,-0.008945601586938245,0.0,0.015741125492292975,,,,,,
24011,,0.012188143739986224,0.012188143739986224,0.0,0.015748416746823504,,,,,,
24012,,0.03660257877470041,0.03660257877470041,0.0,0.015918173856101496,,,,,,
24013,,0.06910429541466404,0.06910429541466404,0.0,0.01654531626996451,,,,,,
24014,,0.10526817730983444,0.10526817730983444,0.0,0.017941921869360805,,,,,,
24015,,0.09908827344167241,0.09908827344167241,0.0,0.019090691048966088,,,,,,
24016,,0.0818455786984055,0.0818455786984055,0.0,0.019835315345100732,,,,,,
24017,,0.08657587548638138,0.08657587548638138,0.0,0.020634655240974645,,,,,,
24018,,0.09603646906233314,0.09603646906233314,0.0,0.021571746790238197,,,,,,
24019,,0.11968795300221269,0.11968795300221269,0.0,0.02296463502561414,,,,,,
24020,,0.15150301365682461,0.15150301365682461,0.0,0.025036192261594068,,,,,,
24021,,0.1611924925612268,0.1611924925612268,0.0,0.02719887591593543,,,,,,
24022,,0.1537155718318456,0.1537155718318456,0.0,0.029025268004307107,,,,,,
24023,,0.15142671854734113,0.15142671854734113,0.0,0.030694023323372233,,,,,,
24024,,0.1376935988403144,0.1376935988403144,0.0,0.032001557130412195,,,,,,
24025,,0.16447318226901653,0.16447318226901653,0.0,0.03378329718618336,,,,,,
24026,,0.16851682307164106,0.16851682307164106,0.0,0.03556223604278971,,,,,,
24027,,0.15760662241550316,0.15760662241550316,0.0,0.03704536053794386,,,,,,
24028,,0.13525215533684298,0.13525215533684298,0.0,0.038102715087986926,,,,,,
24029,,0.1109140154116121,0.1109140154116121,0.0,0.038794131161222836,,,,,,
24030,,0.0747501335164417,0.0747501335164417,0.0,0.03910150311797446,,,,,,
24031,,0.056439307240406064,0.056439307240406064,0.0,0.03927318712505446,,,,,,
24032,,0.0470550087739378,0.0470550087739378,0.0,0.039394373549639414,,,,,,
24033,,0.03606851300831604,0.03606851300831604,0.0,0.03946542722138909,,,,,,
24034,,0.026379034103913845,0.026379034103913845,0.0,0.03950355832021789,,,,,,
24035,,0.012493324177920151,0.012493324177920151,0.0,0.03951049800822973,,,,,,
24036,,-0.006351567864499863,-0.006351567864499863,0.0,0.03950885992768788,,,,,,
24037,,-0.02107652399481204,-0.02107652399481204,0.0,0.03952582563947995,,,,,,
24038,,-0.039311055161364204,-0.039311055161364204,0.0,0.039596938399086845,,,,,,
24039,,-0.05502784771496146,-0.05502784771496146,0.0,0.03975819431119275,,,,,,
24040,,-0.06876096742198838,-0.06876096742198838,0.0,0.04001241238914755,,,,,,
24041,,-0.07639047837033656,-0.07639047837033656,0.0,0.04032818494541155,,,,,,
24042,,-0.08340962844281688,-0.08340962844281688,0.0,0.04069863658484613,,,,,,
24043,,-0.09317540245670257,-0.09317540245670257,0.0,0.04115759751982331,,,,,,
24044,,-0.09653238727397577,-0.09653238727397577,0.0,0.04164103542857228,,,,,,
24045,,-0.09294651712825211,-0.09294651712825211,0.0,0.04208279686137035,,,,,,
24046,,-0.0917257953765164,-0.0917257953765164,0.0,0.04250947573959704,,,,,,
24047,,-0.0824940871290151,-0.0824940871290151,0.0,0.04285464443993908,,,,,,
24048,,-0.07158388647287721,-0.07158388647287721,0.0,0.043111791993429203,,,,,,
24049,,-0.06509880216678125,-0.06509880216678125,0.0,0.043323101203835784,,,,,,
24050,,-0.06258106355382635,-0.06258106355382635,0.0,0.0435151465028573,,,,,,
24051,,-0.05746929121843288,-0.05746929121843288,0.0,0.043676147833907025,,,,,,
24052,,-0.0502212558175021,-0.0502212558175021,0.0,0.043800059164560555,,,,,,
24053,,-0.043965056839856596,-0.043965056839856596,0.0,0.043893079328448575,,,,,,
24054,,-0.033131151293202175,-0.033131151293202175,0.0,0.043946781359334275,,,,,,
24055,,-0.027180132753490592,-0.027180132753490592,0.0,0.0439828783500667,,,,,,
24056,,-0.023594262607766946,-0.023594262607766946,0.0,0.04401036759464493,,,,,,
24057,,-0.013065537499046265,-0.013065537499046265,0.0,0.0440187084310989,,,,,,
24058,,-0.012912947280079301,-0.012912947280079301,0.0,0.04402601684582531,,,,,,
24059,,-0.006809338521400754,-0.006809338521400754,0.0,0.044027174582858944,,,,,,
24060,,-0.0027656977187762166,-0.0027656977187762166,0.0,0.04402750554404454,,,,,,
24061,,0.001201647974364839,0.001201647974364839,0.0,0.04402739359522894,,,,,,
24062,,0.0031853208209353667,0.0031853208209353667,0.0,0.0440277824688391,,,,,,
24063,,0.0051689936675058945,0.0051689936675058945,0.0,0.04402910024485252,,,,,,
24064,,0.0019645990691996573,0.0019645990691996573,0.0,0.044029273550300924,,,,,,
24065,,0.0019645990691996573,0.0019645990691996573,0.0,0.04402929510565726,,,,,,
24066,,0.008678568703746059,0.008678568703746059,0.0,0.044032676579281164,,,,,,
24067,,0.012569619287403633,0.012569619287403633,0.0,0.04404027058466239,,,,,,
24068,,0.012645914396887115,0.012645914396887115,0.0,0.04404815587811061,,,,,,
24069,,0.013866636148622824,0.013866636148622824,0.0,0.04405751494987822,,,,,,
24070,,0.00829709315632865,0.00829709315632865,0.0,0.04405967005687692,,,,,,
24071,,0.003490501258869294,0.003490501258869294,0.0,0.04405790585536902,,,,,,
24072,,0.005855649652857231,0.005855649652857231,0.0,0.044057861480159013,,,,,,
24073,,0.00249866483558403,0.00249866483558403,0.0,0.04405806856408998,,,,,,
24074,,0.004787518120088485,0.004787518120088485,0.0,0.04405916930942445,,,,,,
24075,,0.005855649652857231,0.005855649652857231,0.0,0.04406020626822895,,,,,,
24076,,0.00951781490806436,0.00951781490806436,0.0,0.04406270917169516,,,,,,
24077,,0.0051689936675058945,0.0051689936675058945,0.0,0.0440567894246903,,,,,,
24078,,0.004940108339055449,0.004940108339055449,0.0,0.044046646618272504,,,,,,
24079,,0.006160830090791158,0.006160830090791158,0.0,0.044042500232730604,,,,,,
24080,,0.006160830090791158,0.006160830090791158,0.0,0.044039461734684045,,,,,,
24081,,0.006847486076142495,0.006847486076142495,0.0,0.044040495996867386,,,,,,
24082,,0.007610437170977313,0.007610437170977313,0.0,0.04403200409883957,,,,,,
24083,,0.0042534523537041125,0.0042534523537041125,0.0,0.04402131416025912,,,,,,
24084,,-0.0014686808575570254,-0.0014686808575570254,0.0,0.044005305655617076,,,,,,
24085,,-0.0003242542153047978,-0.0003242542153047978,0.0,0.04399549454992502,,,,,,
24086,,0.002574959945067512,0.002574959945067512,0.0,0.043988754537071906,,,,,,
24087,,0.005855649652857231,0.005855649652857231,0.0,0.043984910816197965,,,,,,
24088,,0.008525978484779095,0.008525978484779095,0.0,0.04398116141912802,,,,,,
24089,,0.007228961623559904,0.007228961623559904,0.0,0.0439741347544424,,,,,,
24090,,0.00623712520027464,0.00623712520027464,0.0,0.04396411046234089,,,,,,
24091,,0.003566796368352776,0.003566796368352776,0.0,0.04394284829602062,,,,,,
24092,,0.003566796368352776,0.003566796368352776,0.0,0.043931755008256905,,,,,,
24093,,0.0032616159304188486,0.0032616159304188486,0.0,0.04392124292496874,,,,,,
24094,,0.005550469214923304,0.005550469214923304,0.0,0.043918496990241085,,,,,,
24095,,0.0047112230106050035,0.0047112230106050035,0.0,0.04391436371856454,,,,,,
24096,,0.00455863279163804,0.00455863279163804,0.0,0.043910160029056435,,,,,,
24097,,0.0015831235217822481,0.0015831235217822481,0.0,0.04390473577441259,,,,,,
24098,,-0.0009346150911726525,-0.0009346150911726525,0.0,0.04389686003137561,,,,,,
24099,,0.005321583886472858,0.005321583886472858,0.0,0.04389578260241582,,,,,,
24100,,0.01035706111238266,0.01035706111238266,0.0,0.043898051442429475,,,0.0033875028610666057,47.0,,
24101,,0.010585946440833105,0.010585946440833105,0.0,0.04389789030258826,,,,,,
24102,,0.006923781185625977,0.006923781185625977,0.0,0.04389053071251927,,,,,,
24103,,0.007305256733043386,0.007305256733043386,0.0,0.0438856305537675,,,,,,
24104,,0.0038719768062867033,0.0038719768062867033,0.0,0.04387901411093568,,,,,,
24105,,0.0023460746166170665,0.0023460746166170665,0.0,0.04387515111427776,,,,,,
24106,,0.0024223697261005483,0.0024223697261005483,0.0,0.043875436643607366,,,,,,
24107,,0.006618600747692049,0.006618600747692049,0.0,0.0438775796405453,,,,,,
24108,,0.010280766002899178,0.010280766002899178,0.0,0.043882815490221654,,,,,,
24109,,0.007686732280460796,0.007686732280460796,0.0,0.04388490939566594,,,,,,
24110,,0.006618600747692049,0.006618600747692049,0.0,0.04387925246380626,,,,,,
24111,,0.00165941863126573,0.00165941863126573,0.0,0.043866087188060905,,,,,,
24112,,0.007991912718394723,0.007991912718394723,0.0,0.04386424509867541,,,,,,
24113,,0.005550469214923304,0.005550469214923304,0.0,0.043865057900763976,,,,,,
24114,,0.009441519798580877,0.009441519798580877,0.0,0.043869117070049285,,,,,,
24115,,0.009060044251163468,0.009060044251163468,0.0,0.0438731083717175,,,,,,
24116,,0.005703059433890267,0.005703059433890267,0.0,0.043874543276713626,,,,,,
24117,,0.007763027389944278,0.007763027389944278,0.0,0.04387730710317345,,,,,,
24118,,0.004100862134737149,0.004100862134737149,0.0,0.04387793393659796,,,,,,
24119,,0.005245288776989376,0.005245288776989376,0.0,0.04387823271395164,,,,,,
24120,,0.008220798046845168,0.008220798046845168,0.0,0.04388013737175804,,,,,,
24121,,0.011272602426184442,0.011272602426184442,0.0,0.043885747045207944,,,,,,
24122,,0.012722209506370596,0.012722209506370596,0.0,0.04389112074180357,,,,,,
24123,,0.009594110017547841,0.009594110017547841,0.0,0.043895127772135424,,,,,,
24124,,0.003948271915770185,0.003948271915770185,0.0,0.04389500381020786,,,,,,
24125,,0.007610437170977313,0.007610437170977313,0.0,0.04389646970966483,,,,,,
24126,,0.008525978484779095,0.008525978484779095,0.0,0.043899926847597616,,,,,,
24127,,0.007763027389944278,0.007763027389944278,0.0,0.04390261125296113,,,,,,
24128,,0.009212634470130432,0.009212634470130432,0.0,0.043906323261793626,,,,,,
24129,,0.008373388265812132,0.008373388265812132,0.0,0.04390926794501659,,,,,,
24130,,0.008068207827878204,0.008068207827878204,0.0,0.04390536437785965,,,,,,
24131,,0.007610437170977313,0.007610437170977313,0.0,0.04388717850945753,,,,,,
24132,,0.008602273594262577,0.008602273594262577,0.0,0.04387857763199597,,,,,,
24133,,0.00791561760891124,0.00791561760891124,0.0,0.043878725432585634,,,,,,
24134,,0.006008239871824195,0.006008239871824195,0.0,0.04388045531135233,,,,,,
24135,,0.004482337682154558,0.004482337682154558,0.0,0.04388069322382759,,,,,,
24136,,0.005779354543373749,0.005779354543373749,0.0,0.04387745548484139,,,,,,
24137,,0.004024567025253667,0.004024567025253667,0.0,0.0438738768809433,,,,,,
24138,,0.003948271915770185,0.003948271915770185,0.0,0.04386733424342371,,,,,,
24139,,0.003948271915770185,0.003948271915770185,0.0,0.04386313729801839,,,,,,
24140,,0.008525978484779095,0.008525978484779095,0.0,0.04385960614094408,,,,,,
24141,,0.007381551842526868,0.007381551842526868,0.0,0.04385940720828055,,,,,,
24142,,0.003566796368352776,0.003566796368352776,0.0,0.043852628099803094,,,,,,
24143,,0.0037956816968032214,0.0037956816968032214,0.0,0.043845173030161874,,,,,,
24144,,0.006313420309758122,0.006313420309758122,0.0,0.043839457282105886,,,,,,
24145,,0.002117189288166621,0.002117189288166621,0.0,0.043831986259161904,,,,,,
24146,,0.0007438773174639479,0.0007438773174639479,0.0,0.043826415324630365,,,,,,
24147,,0.00455863279163804,0.00455863279163804,0.0,0.04382514617101241,,,,,,
24148,,0.006542305638208568,0.006542305638208568,0.0,0.04382572004493453,,,,,,
24149,,0.0070763714045929405,0.0070763714045929405,0.0,0.04382423445397029,,,,,,
24150,,0.0018883039597161755,0.0018883039597161755,0.0,0.04381771761523535,,,,,,
24151,,0.004940108339055449,0.004940108339055449,0.0,0.043806996906020745,,,,,,
24152,,0.0060845349813076766,0.0060845349813076766,0.0,0.04380642885302579,,,,,,
24153,,0.005855649652857231,0.005855649652857231,0.0,0.043806316194805954,,,,,,
24154,,0.008525978484779095,0.008525978484779095,0.0,0.04380853825247622,,,,,,
24155,,0.009365224689097396,0.009365224689097396,0.0,0.04380744926332033,,,,,,
24156,,0.006160830090791158,0.006160830090791158,0.0,0.043800861023783194,,,,,,
24157,,0.0060845349813076766,0.0060845349813076766,0.0,0.043794422189816634,,,,,,
24158,,0.0028038452735179575,0.0028038452735179575,0.0,0.04378828902482435,,,,,,
24159,,0.003032730601968403,0.003032730601968403,0.0,0.04378669436814006,,,,,,
24160,,0.006389715419241604,0.006389715419241604,0.0,0.0437873355034017,,,,,,
24161,,0.012340733958953187,0.012340733958953187,0.0,0.0437941949331551,,,,,,
24162,,0.008068207827878204,0.008068207827878204,0.0,0.043794040345940914,,,,,,
24163,,0.007839322499427759,0.007839322499427759,0.0,0.043792558014670094,,,,,,
24164,,0.002574959945067512,0.002574959945067512,0.0,0.0437858319924506,,,,,,
24165,,0.004329747463187594,0.004329747463187594,0.0,0.04378091447915963,,,,,,
24166,,0.011577782864118369,0.011577782864118369,0.0,0.0437794853212723,,,,,,
24167,,0.006160830090791158,0.006160830090791158,0.0,0.04376989376947536,,,,,,
24168,,0.005245288776989376,0.005245288776989376,0.0,0.043769490028321444,,,,,,
24169,,0.005474174105439822,0.005474174105439822,0.0,0.043768777509336824,,,,,,
24170,,0.008449683375295614,0.008449683375295614,0.0,0.04376786028127279,,,,,,
24171,,0.0037956816968032214,0.0037956816968032214,0.0,0.043758971786562004,,,,,,
24172,,0.0028801403830014394,0.0028801403830014394,0.0,0.04375477442473274,,,,,,
24173,,0.00036240177004653873,0.00036240177004653873,0.0,0.04374789926870361,,,,,,
24174,,0.0051689936675058945,0.0051689936675058945,0.0,0.043745250351147395,,,,,,
24175,,0.009288929579613914,0.009288929579613914,0.0,0.04374408905792876,,,,,,
24176,,0.0032616159304188486,0.0032616159304188486,0.0,0.04373940379668834,,,,,,
24177,,0.007686732280460796,0.007686732280460796,0.0,0.043735367164130866,,,,,,
24178,,0.0042534523537041125,0.0042534523537041125,0.0,0.043730493458076114,,,,,,
24179,,0.004787518120088485,0.004787518120088485,0.0,0.0437227449311132,,,,,,
24180,,0.00020981155107957505,0.00020981155107957505,0.0,0.043715770806245946,,,,,,
24181,,0.007991912718394723,0.007991912718394723,0.0,0.04371679362208362,,,,,,
24182,,0.006923781185625977,0.006923781185625977,0.0,0.04371697395475614,,,,,,
24183,,0.004787518120088485,0.004787518120088485,0.0,0.04371420187284425,,,,,,
24184,,0.0010490577553978753,0.0010490577553978753,0.0,0.04370934534862909,,,,,,
24185,,0.0037956816968032214,0.0037956816968032214,0.0,0.04370369870029055,,,,,,
24186,,0.006771190966659013,0.006771190966659013,0.0,0.04370028380764652,,,,,,
24187,,0.006618600747692049,0.006618600747692049,0.0,0.04369575052247757,,,,,,
24188,,0.010738536659800069,0.010738536659800069,0.0,0.04369938280597967,,,,,,
24189,,0.00997558556496525,0.00997558556496525,0.0,0.043702468257791026,,,,,,
24190,,0.008525978484779095,0.008525978484779095,0.0,0.04370328913573704,,,,,,
24191,,0.006923781185625977,0.006923781185625977,0.0,0.04370341870853647,,,,,,
24192,,0.005855649652857231,0.005855649652857231,0.0,0.04370191679867479,,,,,,
24193,,0.005779354543373749,0.005779354543373749,0.0,0.04369874095945899,,,,,,
24194,,0.010738536659800069,0.010738536659800069,0.0,0.04370126977725617,,,,,,
24195,,0.011425192645151405,0.011425192645151405,0.0,0.043701903913356266,,,,,,
24196,,0.008983749141679986,0.008983749141679986,0.0,0.04370005939148509,,,,,,
24197,,0.012111848630502742,0.012111848630502742,0.0,0.04369925698569244,,,,,,
24198,,0.010738536659800069,0.010738536659800069,0.0,0.043697833120739514,,,,,,
24199,,0.0070763714045929405,0.0070763714045929405,0.0,0.043697528910914614,,,,,,
24200,,0.0061226825360494175,0.0061226825360494175,0.0,0.04369692946222468,,,0.006454566262302587,91.0,,
24201,,0.008869306477454764,0.008869306477454764,0.0,0.04369957189769778,,,,,,
24202,,0.0078774700541695,0.0078774700541695,0.0,0.04370024775635377,,,,,,
24203,,0.011158159761959219,0.011158159761959219,0.0,0.04369918965938306,,,,,,
24204,,0.009632257572289582,0.009632257572289582,0.0,0.043684490059567316,,,,,,
24205,,0.008869306477454764,0.008869306477454764,0.0,0.04367209796581088,,,,,,
24206,,0.008487830930037354,0.008487830930037354,0.0,0.04366796180159707,,,,,,
24207,,0.011997405966277519,0.011997405966277519,0.0,0.0436702863775783,,,,,,
24208,,0.010852979324025291,0.010852979324025291,0.0,0.043674092886064046,,,,,,
24209,,0.007953765163652982,0.007953765163652982,0.0,0.04367325856557857,,,,,,
24210,,0.001163500419623098,0.001163500419623098,0.0,0.043672203146888494,,,,,,
24211,,-0.00013351644159609322,-0.00013351644159609322,0.0,0.04366736325106189,,,,,,
24212,,0.0023079270618753256,0.0023079270618753256,0.0,0.043665422360829,,,,,,
24213,,0.008106355382619945,0.008106355382619945,0.0,0.04366362527602243,,,,,,
24214,,0.01695658808270384,0.01695658808270384,0.0,0.04367588171745424,,,,,,
24215,,0.018406195162889993,0.018406195162889993,0.0,0.043692549182957854,,,,,,
24216,,0.005436026550698081,0.005436026550698081,0.0,0.043691137698270335,,,,,,
24217,,0.0023079270618753256,0.0023079270618753256,0.0,0.04368373052986547,,,,,,
24218,,0.00497825589379719,0.00497825589379719,0.0,0.043674860261402514,,,,,,
24219,,0.004367895017929335,0.004367895017929335,0.0,0.04366306129898876,,,,,,
24220,,0.008182650492103427,0.008182650492103427,0.0,0.04363767623839538,,,,,,
24221,,0.011768520637827073,0.011768520637827073,0.0,0.04359937154148932,,,,,,
24222,,0.008411535820553873,0.008411535820553873,0.0,0.04356405898924629,,,,,,
24223,,0.008258945601586909,0.008258945601586909,0.0,0.04352859074942748,,,,,,
24224,,0.0023079270618753256,0.0023079270618753256,0.0,0.04348330266762575,,,,,,
24225,,0.005054551003280672,0.005054551003280672,0.0,0.04341386569404668,,,,,,
24226,,0.009327077134355655,0.009327077134355655,0.0,0.04332284255775967,,,,,,
24227,,0.012912947280079301,0.012912947280079301,0.0,0.043198833843129544,,,,,,
24228,,0.014057373922331529,0.014057373922331529,0.0,0.042978396847019325,,,,,,
24229,,0.01329442282749671,0.01329442282749671,0.0,0.04277875046920238,,,,,,
24230,,0.0038338292515449623,0.0038338292515449623,0.0,0.04257756911031806,,,,,,
24231,,0.004520485236896299,0.004520485236896299,0.0,0.04241233830523841,,,,,,
24232,,0.013218127718013228,0.013218127718013228,0.0,0.0423063786224144,,,,,,
24233,,0.013370717936980192,0.013370717936980192,0.0,0.04223824486763053,,,,,,
24234,,0.00993743801022351,0.00993743801022351,0.0,0.042162483443875576,,,,,,
24235,,0.0078774700541695,0.0078774700541695,0.0,0.04205229906209132,,,,,,
24236,,0.009708552681773064,0.009708552681773064,0.0,0.041940509746707544,,,,,,
24237,,0.009174486915388691,0.009174486915388691,0.0,0.04188366820474608,,,,,,
24238,,0.012378881513694928,0.012378881513694928,0.0,0.041843443064757145,,,,,,
24239,,0.008106355382619945,0.008106355382619945,0.0,0.041800304739862515,,,,,,
24240,,0.008182650492103427,0.008182650492103427,0.0,0.041799625104453585,,,,,,
24241,,0.013523308155947156,0.013523308155947156,0.0,0.04180141044824525,,,,,,
24242,,0.017643244068055175,0.017643244068055175,0.0,0.04174789012344895,,,,,,
24243,,0.015201800564583756,0.015201800564583756,0.0,0.04151058256587152,,,,,,
24244,,0.008030060273136463,0.008030060273136463,0.0,0.04092955983225029,,,,,,
24245,,0.009021896696421727,0.009021896696421727,0.0,0.04040907928222552,,,,,,
24246,,0.009403372243839137,0.009403372243839137,0.0,0.04005188336219998,,,,,,
24247,,0.010242618448157437,0.010242618448157437,0.0,0.03964871849533172,,,,,,
24248,,0.013981078812848047,0.013981078812848047,0.0,0.03915061603096233,,,,,,
24249,,0.012531471732661892,0.012531471732661892,0.0,0.03835583402588082,,,,,,
24250,,0.007724879835202537,0.007724879835202537,0.0,0.03703556525124249,,,,,,
24251,,0.00497825589379719,0.00497825589379719,0.0,0.03547916564835727,,,,,,
24252,,0.011081864652475737,0.011081864652475737,0.0,0.03400842002993087,,,,,,
24253,,0.015964751659418575,0.015964751659418575,0.0,0.03252667987039308,,,,,,
24254,,0.018863965819790884,0.018863965819790884,0.0,0.03125858837286655,,,,,,
24255,,0.01657511253528643,0.01657511253528643,0.0,0.029337330166207886,,,,,,
24256,,0.010242618448157437,0.010242618448157437,0.0,0.02716000480799461,,,,,,
24257,,0.01077668421454181,0.01077668421454181,0.0,0.025103216281255565,,,,,,
24258,,0.009021896696421727,0.009021896696421727,0.0,0.023473174944969505,,,,,,
24259,,0.009403372243839137,0.009403372243839137,0.0,0.022313399294182353,,,,,,
24260,,0.0074959945067520906,0.0074959945067520906,0.0,0.021767826150885624,,,,,,
24261,,0.012531471732661892,0.012531471732661892,0.0,0.02146325891105653,,,,,,
24262,,0.01665140764476991,0.01665140764476991,0.0,0.021266174063106384,,,,,,
24263,,0.012226291294727964,0.012226291294727964,0.0,0.021148140138507646,,,,,,
24264,,0.007572289616235572,0.007572289616235572,0.0,0.02108240223637045,,,,,,
24265,,0.003910124361028444,0.003910124361028444,0.0,0.021067879245368765,,,,,,
24266,,0.008564126039520836,0.008564126039520836,0.0,0.0210712843025861,,,,,,
24267,,0.013447013046463674,0.013447013046463674,0.0,0.021044092157953637,,,,,,
24268,,0.011463340199893146,0.011463340199893146,0.0,0.020897516651267566,,,,,,
24269,,0.012607766842145374,0.012607766842145374,0.0,0.02059688856454929,,,,,,
24270,,0.005130846112764154,0.005130846112764154,0.0,0.02009451290076053,,,,,,
24271,,9.53688868543523e-05,9.53688868543523e-05,0.0,0.019452961897524806,,,,,,
24272,,-0.0008964675364309116,-0.0008964675364309116,0.0,0.01865938563833016,,,,,,
24273,,0.004749370565346744,0.004749370565346744,0.0,0.017621702966337513,,,,,,
24274,,0.0026894026092927348,0.0026894026092927348,0.0,0.016432913240805393,,,,,,
24275,,0.0017738612954909527,0.0017738612954909527,0.0,0.015247728010511817,,,,,,
24276,,0.0008583199816891707,0.0008583199816891707,0.0,0.013996980009168148,,,,,,
24277,,0.004825665674830226,0.004825665674830226,0.0,0.012900718887060021,,,,,,
24278,,0.0029182879377431803,0.0029182879377431803,0.0,0.012007756478102276,,,,,,
24279,,-0.0038719768062867033,-0.0038719768062867033,0.0,0.011217216534037686,,,,,,
24280,,-0.00020981155107957505,-0.00020981155107957505,0.0,0.010430645122155833,,,,,,
24281,,0.0014686808575570254,0.0014686808575570254,0.0,0.009718440529111914,,,,,,
24282,,-0.0005912870984969842,-0.0005912870984969842,0.0,0.009136937679755543,,,,,,
24283,,-0.0009727626459143934,-0.0009727626459143934,0.0,0.00866508611108844,,,,,,
24284,,-0.0013542381933318026,-0.0013542381933318026,0.0,0.008385654353914323,,,,,,
24285,,-0.0022697795071335847,-0.0022697795071335847,0.0,0.008193265537723184,,,,,,
24286,,-0.00020981155107957505,-0.00020981155107957505,0.0,0.00804421553782334,,,,,,
24287,,-5.722133211261138e-05,-5.722133211261138e-05,0.0,0.007997950236453878,,,,,,
24288,,0.0019264515144579164,0.0019264515144579164,0.0,0.007953512990437062,,,,,,
24289,,0.0036812390325779987,0.0036812390325779987,0.0,0.007944538532634335,,,,,,
24290,,-0.0013542381933318026,-0.0013542381933318026,0.0,0.007942947145358452,,,,,,
24291,,-0.004100862134737149,-0.004100862134737149,0.0,0.007947153513872847,,,,,,
24292,,0.0056649118791485265,0.0056649118791485265,0.0,0.007953154206561666,,,,,,
24293,,0.004367895017929335,0.004367895017929335,0.0,0.007951065619865413,,,,,,
24294,,0.008258945601586909,0.008258945601586909,0.0,0.007968640374446789,,,,,,
24295,,0.005512321660181563,0.005512321660181563,0.0,0.007975873621647487,,,,,,
24296,,0.003528648813611035,0.003528648813611035,0.0,0.007958720296482388,,,,,,
24297,,0.002155336842908362,0.002155336842908362,0.0,0.007916722192305702,,,,,,
24298,,-0.0023460746166170665,-0.0023460746166170665,0.0,0.007874206013060405,,,,,,
24299,,0.001621271076523989,0.001621271076523989,0.0,0.00782167073199229,,,,,,
24300,,0.0024605172808422893,0.0024605172808422893,0.0,0.007804200371142574,,,0.004303044174868391,64.0,,
24301,,0.0074959945067520906,0.0074959945067520906,0.0,0.007816449022576551,,,,,,
24302,,0.012302586404211446,0.012302586404211446,0.0,0.007848939646901027,,,,,,
24303,,0.011463340199893146,0.011463340199893146,0.0,0.007883530208505884,,,,,,
24304,,0.0032234683756771076,0.0032234683756771076,0.0,0.007880074371961032,,,,,,
24305,,0.0006294346532387252,0.0006294346532387252,0.0,0.007870718750639093,,,,,,
24306,,0.0022316319523918438,0.0022316319523918438,0.0,0.007847037801790857,,,,,,
24307,,0.006733043411917272,0.006733043411917272,0.0,0.007852193240684284,,,,,,
24308,,0.0056649118791485265,0.0056649118791485265,0.0,0.00785432100812029,,,,,,
24309,,0.006733043411917272,0.006733043411917272,0.0,0.007856362832777537,,,,,,
24310,,0.005436026550698081,0.005436026550698081,0.0,0.007854036640925313,,,,,,
24311,,0.0023842221713588074,0.0023842221713588074,0.0,0.007842623648152455,,,,,,
24312,,0.004291599908445853,0.004291599908445853,0.0,0.007831666651361112,,,,,,
24313,,0.004520485236896299,0.004520485236896299,0.0,0.007832316974533857,,,,,,
24314,,0.004901960784313708,0.004901960784313708,0.0,0.00783838540097523,,,,,,
24315,,0.007190814068818163,0.007190814068818163,0.0,0.007852683943237425,,,,,,
24316,,0.005512321660181563,0.005512321660181563,0.0,0.007859257528604679,,,,,,
24317,,0.004901960784313708,0.004901960784313708,0.0,0.007856419206994585,,,,,,
24318,,0.0013923857480735435,0.0013923857480735435,0.0,0.007836816862353648,,,,,,
24319,,0.003147173266193626,0.003147173266193626,0.0,0.007825059376423913,,,,,,
24320,,0.003604943923094517,0.003604943923094517,0.0,0.00781785897694267,,,,,,
24321,,0.004444190127412817,0.004444190127412817,0.0,0.007819813229096417,,,,,,
24322,,0.00497825589379719,0.00497825589379719,0.0,0.00782316547494895,,,,,,
24323,,0.0022316319523918438,0.0022316319523918438,0.0,0.007821593075202558,,,,,,
24324,,-0.0007438773174639479,-0.0007438773174639479,0.0,0.007813179734266922,,,,,,
24325,,0.001621271076523989,0.001621271076523989,0.0,0.007807733550903667,,,,,,
24326,,0.006733043411917272,0.006733043411917272,0.0,0.007814566798501687,,,,,,
24327,,0.004901960784313708,0.004901960784313708,0.0,0.00782055191440061,,,,,,
24328,,0.004749370565346744,0.004749370565346744,0.0,0.007826576916240443,,,,,,
24329,,0.003147173266193626,0.003147173266193626,0.0,0.007821460409736419,,,,,,
24330,,0.0016975661860074709,0.0016975661860074709,0.0,0.007792392860296874,,,,,,
24331,,0.0023842221713588074,0.0023842221713588074,0.0,0.007762658986912511,,,,,,
24332,,0.0008583199816891707,0.0008583199816891707,0.0,0.007749428902693148,,,,,,
24333,,0.0027656977187762166,0.0027656977187762166,0.0,0.007736593290570759,,,,,,
24334,,0.00497825589379719,0.00497825589379719,0.0,0.007739343935909199,,,,,,
24335,,0.007953765163652982,0.007953765163652982,0.0,0.007755550764671024,,,,,,
24336,,0.0056649118791485265,0.0056649118791485265,0.0,0.007762897798835547,,,,,,
24337,,0.005512321660181563,0.005512321660181563,0.0,0.007759138715178012,,,,,,
24338,,0.0095559624628061,0.0095559624628061,0.0,0.007755109394933931,,,,,,
24339,,0.0028419928282596985,0.0028419928282596985,0.0,0.007740797360171479,,,,,,
24340,,0.007572289616235572,0.007572289616235572,0.0,0.007744597208365572,,,,,,
24341,,0.010013733119706991,0.010013733119706991,0.0,0.007771923253206518,,,,,,
24342,,0.008106355382619945,0.008106355382619945,0.0,0.007772438560611154,,,,,,
24343,,0.0087167162584878,0.0087167162584878,0.0,0.007785063096243838,,,,,,
24344,,0.005283436331731117,0.005283436331731117,0.0,0.007767946992005291,,,,,,
24345,,0.007419699397268609,0.007419699397268609,0.0,0.007760378085128191,,,,,,
24346,,0.006504158083466827,0.006504158083466827,0.0,0.007763117042903959,,,,,,
24347,,0.010013733119706991,0.010013733119706991,0.0,0.007774313079610775,,,,,,
24348,,0.011005569542992255,0.011005569542992255,0.0,0.007803425273132408,,,,,,
24349,,0.012302586404211446,0.012302586404211446,0.0,0.00783784940455531,,,,,,
24350,,0.011844815747310555,0.011844815747310555,0.0,0.007857992689781856,,,,,,
24351,,0.012607766842145374,0.012607766842145374,0.0,0.007866808511273405,,,,,,
24352,,0.011310749980926182,0.011310749980926182,0.0,0.00785742904230216,,,,,,
24353,,0.0036812390325779987,0.0036812390325779987,0.0,0.00783568163550652,,,,,,
24354,,0.0007820248722056888,0.0007820248722056888,0.0,0.007831525269612482,,,,,,
24355,,0.005512321660181563,0.005512321660181563,0.0,0.007823878774324555,,,,,,
24356,,0.007114518959334681,0.007114518959334681,0.0,0.007817742434673243,,,,,,
24357,,0.006733043411917272,0.006733043411917272,0.0,0.007813589482309875,,,,,,
24358,,0.00909819180590521,0.00909819180590521,0.0,0.007813006435150415,,,,,,
24359,,0.006733043411917272,0.006733043411917272,0.0,0.007806108600306204,,,,,,
24360,,0.011387045090409664,0.011387045090409664,0.0,0.007824069623446922,,,,,,
24361,,0.012684061951628856,0.012684061951628856,0.0,0.007852626736472846,,,,,,
24362,,0.006504158083466827,0.006504158083466827,0.0,0.007843847407149584,,,,,,
24363,,0.003147173266193626,0.003147173266193626,0.0,0.007829213517935025,,,,,,
24364,,0.0018501564049744346,0.0018501564049744346,0.0,0.007820135249450693,,,,,,
24365,,-0.003566796368352776,-0.003566796368352776,0.0,0.007818086391229585,,,,,,
24366,,0.0010109102006561344,0.0010109102006561344,0.0,0.007809077830449329,,,,,,
24367,,0.004749370565346744,0.004749370565346744,0.0,0.00781084797219469,,,,,,
24368,,0.010318913557640919,0.010318913557640919,0.0,0.007836103933266317,,,,,,
24369,,0.01329442282749671,0.01329442282749671,0.0,0.007880684571724644,,,,,,
24370,,0.009403372243839137,0.009403372243839137,0.0,0.007885022853984585,,,,,,
24371,,0.005436026550698081,0.005436026550698081,0.0,0.007878144705687679,,,,,,
24372,,0.004291599908445853,0.004291599908445853,0.0,0.007879716259045306,,,,,,
24373,,0.00665674830243379,0.00665674830243379,0.0,0.00788796237884664,,,,,,
24374,,0.004520485236896299,0.004520485236896299,0.0,0.007882607194900495,,,,,,
24375,,0.005359731441214599,0.005359731441214599,0.0,0.007889290582018886,,,,,,
24376,,0.004444190127412817,0.004444190127412817,0.0,0.00789457871953568,,,,,,
24377,,0.0065804531929503085,0.0065804531929503085,0.0,0.007900777908274797,,,,,,
24378,,0.011539635309376628,0.011539635309376628,0.0,0.007925602014677216,,,,,,
24379,,0.007953765163652982,0.007953765163652982,0.0,0.007929218346773336,,,,,,
24380,,0.008869306477454764,0.008869306477454764,0.0,0.00794978116500353,,,,,,
24381,,0.011158159761959219,0.011158159761959219,0.0,0.007977107078957156,,,,,,
24382,,0.013065537499046265,0.013065537499046265,0.0,0.008013456425859527,,,,,,
24383,,0.010547798886091364,0.010547798886091364,0.0,0.008034309234934879,,,,,,
24384,,0.004291599908445853,0.004291599908445853,0.0,0.00801961027016846,,,,,,
24385,,0.003604943923094517,0.003604943923094517,0.0,0.00799933215442047,,,,,,
24386,,0.0023079270618753256,0.0023079270618753256,0.0,0.007990459836244596,,,,,,
24387,,0.011310749980926182,0.011310749980926182,0.0,0.008015155381053475,,,,,,
24388,,0.013752193484397601,0.013752193484397601,0.0,0.008064168171144092,,,,,,
24389,,0.01367589837491412,0.01367589837491412,0.0,0.00811196610723409,,,,,,
24390,,0.00909819180590521,0.00909819180590521,0.0,0.008123200076144897,,,,,,
24391,,0.005512321660181563,0.005512321660181563,0.0,0.008090509538198913,,,,,,
24392,,0.004596780346379781,0.004596780346379781,0.0,0.008078687384547603,,,,,,
24393,,0.005893797207598972,0.005893797207598972,0.0,0.008071494537391245,,,,,,
24394,,0.009861142900740028,0.009861142900740028,0.0,0.008095862404321261,,,,,,
24395,,0.00833524071107039,0.00833524071107039,0.0,0.008109472931097863,,,,,,
24396,,0.007648584725719055,0.007648584725719055,0.0,0.00808919638425654,,,,,,
24397,,0.007648584725719055,0.007648584725719055,0.0,0.008094715827062147,,,,,,
24398,,0.005741206988632008,0.005741206988632008,0.0,0.00809617891545332,,,,,,
24399,,0.0038338292515449623,0.0038338292515449623,0.0,0.008092078161019292,,,,,,
24400,,0.008411535820553873,0.008411535820553873,0.0,0.008091905361545533,,,0.00434882124055848,62.0,,
24401,,0.012149996185244483,0.012149996185244483,0.0,0.008127615205930885,,,,,,
24402,,0.009174486915388691,0.009174486915388691,0.0,0.00814788466993281,,,,,,
24403,,0.006351567864499863,0.006351567864499863,0.0,0.008158606215161204,,,,,,
24404,,0.003147173266193626,0.003147173266193626,0.0,0.00815412484043136,,,,,,
24405,,0.0004768444342717615,0.0004768444342717615,0.0,0.008131149474316979,,,,,,
24406,,0.004444190127412817,0.004444190127412817,0.0,0.00813358544270196,,,,,,
24407,,0.010242618448157437,0.010242618448157437,0.0,0.00814582426364995,,,,,,
24408,,0.011005569542992255,0.011005569542992255,0.0,0.008173274283728195,,,,,,
24409,,0.009632257572289582,0.009632257572289582,0.0,0.008191834464378926,,,,,,
24410,,0.006504158083466827,0.006504158083466827,0.0,0.008203041585051302,,,,,,
24411,,0.0033760585946440713,0.0033760585946440713,0.0,0.008189123775746616,,,,,,
24412,,0.0056649118791485265,0.0056649118791485265,0.0,0.008184915757455174,,,,,,
24413,,0.008869306477454764,0.008869306477454764,0.0,0.008199708064174308,,,,,,
24414,,0.011997405966277519,0.011997405966277519,0.0,0.008237490137333436,,,,,,
24415,,0.009327077134355655,0.009327077134355655,0.0,0.008256624016309276,,,,,,
24416,,0.005588616769665045,0.005588616769665045,0.0,0.00825277472285668,,,,,,
24417,,0.00581750209811549,0.00581750209811549,0.0,0.008250150011504486,,,,,,
24418,,0.0036812390325779987,0.0036812390325779987,0.0,0.008223291325110441,,,,,,
24419,,-0.00455863279163804,-0.00455863279163804,0.0,0.008202451509370334,,,,,,
24420,,0.0038338292515449623,0.0038338292515449623,0.0,0.008187066792582747,,,,,,
24421,,0.013981078812848047,0.013981078812848047,0.0,0.008226147661993857,,,,,,
24422,,0.01581216144045161,0.01581216144045161,0.0,0.008282963670575025,,,,,,
24423,,0.012531471732661892,0.012531471732661892,0.0,0.008315349581791913,,,,,,
24424,,0.004901960784313708,0.004901960784313708,0.0,0.00829144974564308,,,,,,
24425,,-0.0015831235217822481,-0.0015831235217822481,0.0,0.008257814006073299,,,,,,
24426,,1.907377737087046e-05,1.907377737087046e-05,0.0,0.008236539958363537,,,,,,
24427,,0.002155336842908362,0.002155336842908362,0.0,0.008198961867311274,,,,,,
24428,,0.006046387426565936,0.006046387426565936,0.0,0.008178053091019273,,,,,,
24429,,0.009250782024872173,0.009250782024872173,0.0,0.008187484876456748,,,,,,
24430,,0.007343404287785127,0.007343404287785127,0.0,0.008191848366995413,,,,,,
24431,,0.005741206988632008,0.005741206988632008,0.0,0.008179710897383934,,,,,,
24432,,0.002613107499809253,0.002613107499809253,0.0,0.008165020296109113,,,,,,
24433,,0.005970092317082454,0.005970092317082454,0.0,0.008141326527221162,,,,,,
24434,,0.006885633630884236,0.006885633630884236,0.0,0.008129203131654654,,,,,,
24435,,0.009479667353322618,0.009479667353322618,0.0,0.008132197551427104,,,,,,
24436,,0.0070382238498511995,0.0070382238498511995,0.0,0.008126178800003546,,,,,,
24437,,0.004444190127412817,0.004444190127412817,0.0,0.008092888158232872,,,,,,
24438,,0.005283436331731117,0.005283436331731117,0.0,0.008068710486340289,,,,,,
24439,,0.006733043411917272,0.006733043411917272,0.0,0.008063878650084157,,,,,,
24440,,0.008258945601586909,0.008258945601586909,0.0,0.00808188215066876,,,,,,
24441,,0.007953765163652982,0.007953765163652982,0.0,0.008098876182376485,,,,,,
24442,,0.009861142900740028,0.009861142900740028,0.0,0.008123510848952926,,,,,,
24443,,0.009708552681773064,0.009708552681773064,0.0,0.008131145583652882,,,,,,
24444,,0.00909819180590521,0.00909819180590521,0.0,0.008076219189242612,,,,,,
24445,,0.005283436331731117,0.005283436331731117,0.0,0.007992101929926193,,,,,,
24446,,0.006504158083466827,0.006504158083466827,0.0,0.007995570278252918,,,,,,
24447,,0.00665674830243379,0.00665674830243379,0.0,0.008006163090087903,,,,,,
24448,,0.012149996185244483,0.012149996185244483,0.0,0.008039448467814162,,,,,,
24449,,0.013828488593881083,0.013828488593881083,0.0,0.008085864443376134,,,,,,
24450,,0.008564126039520836,0.008564126039520836,0.0,0.008087581827816779,,,,,,
24451,,0.004444190127412817,0.004444190127412817,0.0,0.008055599755520065,,,,,,
24452,,0.004596780346379781,0.004596780346379781,0.0,0.008042197017999454,,,,,,
24453,,0.007190814068818163,0.007190814068818163,0.0,0.008037734968118866,,,,,,
24454,,0.00665674830243379,0.00665674830243379,0.0,0.00804827228467857,,,,,,
24455,,0.01283665217059582,0.01283665217059582,0.0,0.008085792453922389,,,,,,
24456,,0.015049210345616792,0.015049210345616792,0.0,0.008123207086188926,,,,,,
24457,,0.009250782024872173,0.009250782024872173,0.0,0.008101456185421204,,,,,,
24458,,0.004901960784313708,0.004901960784313708,0.0,0.008054743590911963,,,,,,
24459,,0.002613107499809253,0.002613107499809253,0.0,0.008008753999874649,,,,,,
24460,,0.0018501564049744346,0.0018501564049744346,0.0,0.008005692859516404,,,,,,
24461,,0.005741206988632008,0.005741206988632008,0.0,0.00800909370325221,,,,,,
24462,,0.007801174944686019,0.007801174944686019,0.0,0.007978128602096825,,,,,,
24463,,0.005283436331731117,0.005283436331731117,0.0,0.007936914820439041,,,,,,
24464,,0.005207141222247635,0.005207141222247635,0.0,0.007917268832140868,,,,,,
24465,,0.010013733119706991,0.010013733119706991,0.0,0.007927756369218627,,,,,,
24466,,0.0087167162584878,0.0087167162584878,0.0,0.007922743537926559,,,,,,
24467,,0.005207141222247635,0.005207141222247635,0.0,0.007907072260388691,,,,,,
24468,,0.003070878156710144,0.003070878156710144,0.0,0.00786743582426546,,,,,,
24469,,0.0036812390325779987,0.0036812390325779987,0.0,0.007853009449853083,,,,,,
24470,,0.0024605172808422893,0.0024605172808422893,0.0,0.0078361321932982,,,,,,
24471,,0.007953765163652982,0.007953765163652982,0.0,0.007802877144805112,,,,,,
24472,,0.009632257572289582,0.009632257572289582,0.0,0.007741761799314838,,,,,,
24473,,0.0027656977187762166,0.0027656977187762166,0.0,0.007678761156777572,,,,,,
24474,,0.001163500419623098,0.001163500419623098,0.0,0.007660868276617823,,,,,,
24475,,0.006275272755016381,0.006275272755016381,0.0,0.007648936288944818,,,,,,
24476,,0.008945601586938245,0.008945601586938245,0.0,0.007646548650047095,,,,,,
24477,,0.003452353704127553,0.003452353704127553,0.0,0.007620065032433147,,,,,,
24478,,-0.0015831235217822481,-0.0015831235217822481,0.0,0.007564814336631293,,,,,,
24479,,0.005970092317082454,0.005970092317082454,0.0,0.007529847820640064,,,,,,
24480,,0.01161593041886011,0.01161593041886011,0.0,0.007551543452223066,,,,,,
24481,,0.007648584725719055,0.007648584725719055,0.0,0.007561243794063128,,,,,,
24482,,0.0103952086671244,0.0103952086671244,0.0,0.007557002630185965,,,,,,
24483,,0.008411535820553873,0.008411535820553873,0.0,0.007503850331205395,,,,,,
24484,,0.0032997634851605895,0.0032997634851605895,0.0,0.007403238505524916,,,,,,
24485,,0.001621271076523989,0.001621271076523989,0.0,0.007322900485396339,,,,,,
24486,,0.0003242542153047978,0.0003242542153047978,0.0,0.007291720843441355,,,,,,
24487,,0.006351567864499863,0.006351567864499863,0.0,0.0072690887680743055,,,,,,
24488,,0.00993743801022351,0.00993743801022351,0.0,0.007274278061707584,,,,,,
24489,,0.010013733119706991,0.010013733119706991,0.0,0.007277818995089528,,,,,,
24490,,0.006046387426565936,0.006046387426565936,0.0,0.007271952734601097,,,,,,
24491,,0.004749370565346744,0.004749370565346744,0.0,0.007231638502490928,,,,,,
24492,,0.006885633630884236,0.006885633630884236,0.0,0.007162207433287099,,,,,,
24493,,0.008564126039520836,0.008564126039520836,0.0,0.0071390602167435615,,,,,,
24494,,0.006961928740367718,0.006961928740367718,0.0,0.007136358363966833,,,,,,
24495,,0.008640421149004318,0.008640421149004318,0.0,0.00715442042312003,,,,,,
24496,,0.005588616769665045,0.005588616769665045,0.0,0.007141613095230166,,,,,,
24497,,0.005130846112764154,0.005130846112764154,0.0,0.007094428331417548,,,,,,
24498,,0.0056649118791485265,0.0056649118791485265,0.0,0.007063929540884212,,,,,,
24499,,0.005512321660181563,0.005512321660181563,0.0,0.007024250860199173,,,,,,
24500,,0.010090028229190473,0.010090028229190473,0.0,0.007047573162827978,,,0.005493247882810711,81.0,,
24501,,0.012531471732661892,0.012531471732661892,0.0,0.007095845327650769,,,,,,
24502,,0.007190814068818163,0.007190814068818163,0.0,0.007111423438242159,,,,,,
24503,,0.00665674830243379,0.00665674830243379,0.0,0.0071180709222099115,,,,,,
24504,,0.008030060273136463,0.008030060273136463,0.0,0.00713553377605643,,,,,,
24505,,0.0024605172808422893,0.0024605172808422893,0.0,0.007136419539273109,,,,,,
24506,,0.0032234683756771076,0.0032234683756771076,0.0,0.007139359768670468,,,,,,
24507,,0.009250782024872173,0.009250782024872173,0.0,0.007158301728811971,,,,,,
24508,,0.011081864652475737,0.011081864652475737,0.0,0.007192927249873,,,,,,
24509,,0.014057373922331529,0.014057373922331529,0.0,0.0072479094779882985,,,,,,
24510,,0.011539635309376628,0.011539635309376628,0.0,0.007287727407576427,,,,,,
24511,,0.008945601586938245,0.008945601586938245,0.0,0.007310917994084697,,,,,,
24512,,0.004291599908445853,0.004291599908445853,0.0,0.007316288632096891,,,,,,
24513,,0.005359731441214599,0.005359731441214599,0.0,0.007324538479014937,,,,,,
24514,,0.0042153047989623715,0.0042153047989623715,0.0,0.007329266389973556,,,,,,
24515,,0.011921110856794037,0.011921110856794037,0.0,0.00736977804000142,,,,,,
24516,,0.006885633630884236,0.006885633630884236,0.0,0.007383737256900362,,,,,,
24517,,0.008411535820553873,0.008411535820553873,0.0,0.007404538300709635,,,,,,
24518,,0.008030060273136463,0.008030060273136463,0.0,0.007422358632885216,,,,,,
24519,,0.0042153047989623715,0.0042153047989623715,0.0,0.00742359371517048,,,,,,
24520,,0.0038338292515449623,0.0038338292515449623,0.0,0.007427359916190893,,,,,,
24521,,0.007572289616235572,0.007572289616235572,0.0,0.007439210986812303,,,,,,
24522,,0.012531471732661892,0.012531471732661892,0.0,0.0074756341541789085,,,,,,
24523,,0.010929274433508773,0.010929274433508773,0.0,0.0075047651280903795,,,,,,
24524,,0.0056649118791485265,0.0056649118791485265,0.0,0.00749429520964559,,,,,,
24525,,9.53688868543523e-05,9.53688868543523e-05,0.0,0.007485478510940263,,,,,,
24526,,0.0010872053101396162,0.0010872053101396162,0.0,0.007482204980926627,,,,,,
24527,,0.0012397955291065799,0.0012397955291065799,0.0,0.0074813018027457415,,,,,,
24528,,0.00909819180590521,0.00909819180590521,0.0,0.00750372216642214,,,,,,
24529,,0.009250782024872173,0.009250782024872173,0.0,0.007527714910759633,,,,,,
24530,,0.002155336842908362,0.002155336842908362,0.0,0.007527308093371079,,,,,,
24531,,0.00413900968947889,0.00413900968947889,0.0,0.007516019387035119,,,,,,
24532,,0.012226291294727964,0.012226291294727964,0.0,0.007515478079223552,,,,,,
24533,,0.006504158083466827,0.006504158083466827,0.0,0.007489659648177229,,,,,,
24534,,-0.003948271915770185,-0.003948271915770185,0.0,0.00749116827285848,,,,,,
24535,,0.00665674830243379,0.00665674830243379,0.0,0.007503901765141051,,,,,,
24536,,0.011997405966277519,0.011997405966277519,0.0,0.0075440509703522535,,,,,,
24537,,0.007190814068818163,0.007190814068818163,0.0,0.007545887475779307,,,,,,
24538,,0.0017738612954909527,0.0017738612954909527,0.0,0.007537544130849371,,,,,,
24539,,0.002613107499809253,0.002613107499809253,0.0,0.007526430503306681,,,,,,
24540,,0.006809338521400754,0.006809338521400754,0.0,0.007531286227203029,,,,,,
24541,,0.012684061951628856,0.012684061951628856,0.0,0.007575952666890986,,,,,,
24542,,0.009861142900740028,0.009861142900740028,0.0,0.007598537569838929,,,,,,
24543,,0.005283436331731117,0.005283436331731117,0.0,0.007600677243495794,,,,,,
24544,,0.0032234683756771076,0.0032234683756771076,0.0,0.007596775425079424,,,,,,
24545,,0.00581750209811549,0.00581750209811549,0.0,0.007591661558773352,,,,,,
24546,,0.006809338521400754,0.006809338521400754,0.0,0.00759623654023429,,,,,,
24547,,0.007419699397268609,0.007419699397268609,0.0,0.007605109530100176,,,,,,
24548,,0.008793011367971282,0.008793011367971282,0.0,0.00762662590869034,,,,,,
24549,,0.012531471732661892,0.012531471732661892,0.0,0.007668450417974204,,,,,,
24550,,0.010318913557640919,0.010318913557640919,0.0,0.007694906467012144,,,,,,
24551,,0.007419699397268609,0.007419699397268609,0.0,0.007704873044845302,,,,,,
24552,,0.005512321660181563,0.005512321660181563,0.0,0.007706453660489746,,,,,,
24553,,0.006198977645532899,0.006198977645532899,0.0,0.007715882994236577,,,,,,
24554,,0.006427862973983345,0.006427862973983345,0.0,0.007727359540175129,,,,,,
24555,,0.005283436331731117,0.005283436331731117,0.0,0.007734469947856822,,,,,,
24556,,0.009174486915388691,0.009174486915388691,0.0,0.00774537819343924,,,,,,
24557,,0.0087167162584878,0.0087167162584878,0.0,0.0077599459588725,,,,,,
24558,,0.007648584725719055,0.007648584725719055,0.0,0.007770009071395997,,,,,,
24559,,0.00581750209811549,0.00581750209811549,0.0,0.007776703798804041,,,,,,
24560,,0.0042153047989623715,0.0042153047989623715,0.0,0.007780864241058181,,,,,,
24561,,0.008564126039520836,0.008564126039520836,0.0,0.007799744939293324,,,,,,
24562,,0.007419699397268609,0.007419699397268609,0.0,0.00781486879444289,,,,,,
24563,,0.0038338292515449623,0.0038338292515449623,0.0,0.007816829460115146,,,,,,
24564,,0.000705729762722207,0.000705729762722207,0.0,0.007810072723792793,,,,,,
24565,,-0.0024223697261005483,-0.0024223697261005483,0.0,0.007794080742719129,,,,,,
24566,,0.0024605172808422893,0.0024605172808422893,0.0,0.007786815133459947,,,,,,
24567,,0.00413900968947889,0.00413900968947889,0.0,0.007783113938504498,,,,,,
24568,,0.00497825589379719,0.00497825589379719,0.0,0.007764508161162464,,,,,,
24569,,0.0027656977187762166,0.0027656977187762166,0.0,0.007764388373439962,,,,,,
24570,,0.00024795910582131597,0.00024795910582131597,0.0,0.007748334766627134,,,,,,
24571,,-0.0031853208209353667,-0.0031853208209353667,0.0,0.007723006425906329,,,,,,
24572,,-0.003109025711451885,-0.003109025711451885,0.0,0.007707213882726432,,,,,,
24573,,-0.002651255054550994,-0.002651255054550994,0.0,0.007687740537876787,,,,,,
24574,,0.0013923857480735435,0.0013923857480735435,0.0,0.007680391631623045,,,,,,
24575,,0.0022316319523918438,0.0022316319523918438,0.0,0.007666205862065165,,,,,,
24576,,0.0036812390325779987,0.0036812390325779987,0.0,0.007658048134206538,,,,,,
24577,,0.003452353704127553,0.003452353704127553,0.0,0.007632925012603155,,,,,,
24578,,0.0037575341420614805,0.0037575341420614805,0.0,0.0076023885488330405,,,,,,
24579,,-0.0007438773174639479,-0.0007438773174639479,0.0,0.007559144016452706,,,,,,
24580,,0.0005531395437552433,0.0005531395437552433,0.0,0.007518775832195563,,,,,,
24581,,0.004444190127412817,0.004444190127412817,0.0,0.0074784190216418455,,,,,,
24582,,0.0056649118791485265,0.0056649118791485265,0.0,0.007450506520865616,,,,,,
24583,,0.0036812390325779987,0.0036812390325779987,0.0,0.007450506520865616,,,,,,
24584,,0.0065804531929503085,0.0065804531929503085,0.0,0.007462952471852547,,,,,,
24585,,0.00581750209811549,0.00581750209811549,0.0,0.0074639595937429125,,,,,,
24586,,0.0095559624628061,0.0095559624628061,0.0,0.007475804271545116,,,,,,
24587,,0.0095559624628061,0.0095559624628061,0.0,0.0074891637460509815,,,,,,
24588,,0.013065537499046265,0.013065537499046265,0.0,0.007514644574165992,,,,,,
24589,,0.017948424505989102,0.017948424505989102,0.0,0.007594301403641324,,,,,,
24590,,0.014744029907682865,0.014744029907682865,0.0,0.007619370851060501,,,,,,
24591,,0.011081864652475737,0.011081864652475737,0.0,0.007608498993477146,,,,,,
24592,,0.007419699397268609,0.007419699397268609,0.0,0.007612140463853986,,,,,,
24593,,0.010013733119706991,0.010013733119706991,0.0,0.007637905219580313,,,,,,
24594,,0.011005569542992255,0.011005569542992255,0.0,0.007671331893655012,,,,,,
24595,,0.014362554360265456,0.014362554360265456,0.0,0.00772598875805839,,,,,,
24596,,0.011997405966277519,0.011997405966277519,0.0,0.007766097821860968,,,,,,
24597,,0.01863508049134044,0.01863508049134044,0.0,0.007856465916753702,,,,,,
24598,,0.01497291523613331,0.01497291523613331,0.0,0.007888968978460082,,,,,,
24599,,0.014209964141298492,0.014209964141298492,0.0,0.007895905008430137,,,,,,
24600,,0.01493476768139157,0.01493476768139157,0.0,0.007932883278024761,,,0.0043945983062485695,57.0,,
24601,,0.015087357900358533,0.015087357900358533,0.0,0.007986979762574875,,,,,,
24602,,0.014248111696040233,0.014248111696040233,0.0,0.008037065053352391,,,,,,
24603,,0.014019226367589788,0.014019226367589788,0.0,0.008078135219731683,,,,,,
24604,,0.010128175783932214,0.010128175783932214,0.0,0.008100211200261925,,,,,,
24605,,0.007000076295109459,0.007000076295109459,0.0,0.008105650549073673,,,,,,
24606,,0.004100862134737149,0.004100862134737149,0.0,0.008104863685737837,,,,,,
24607,,0.012417029068436669,0.012417029068436669,0.0,0.008134549980998102,,,,,,
24608,,0.012798504615854078,0.012798504615854078,0.0,0.008142733842219075,,,,,,
24609,,0.013942931258106306,0.013942931258106306,0.0,0.008177670889203828,,,,,,
24610,,0.012951094834821042,0.012951094834821042,0.0,0.00820131366190537,,,,,,
24611,,0.009212634470130432,0.009212634470130432,0.0,0.008190801742948594,,,,,,
24612,,0.008144502937361686,0.008144502937361686,0.0,0.008163052575925457,,,,,,
24613,,0.00913633936064695,0.00913633936064695,0.0,0.00815565019607128,,,,,,
24614,,0.005321583886472858,0.005321583886472858,0.0,0.008158289023798839,,,,,,
24615,,0.006771190966659013,0.006771190966659013,0.0,0.008167038673430382,,,,,,
24616,,0.006313420309758122,0.006313420309758122,0.0,0.008176225478721417,,,,,,
24617,,0.00745784695201035,0.00745784695201035,0.0,0.008156975921998363,,,,,,
24618,,0.004100862134737149,0.004100862134737149,0.0,0.008110924776735938,,,,,,
24619,,0.002040894178683139,0.002040894178683139,0.0,0.008061763811074731,,,,,,
24620,,0.004634927901121522,0.004634927901121522,0.0,0.00804521831627172,,,,,,
24621,,0.008907454032196505,0.008907454032196505,0.0,0.008058436230662222,,,,,,
24622,,0.008525978484779095,0.008525978484779095,0.0,0.008072334033143686,,,,,,
24623,,0.00539787899595634,0.00539787899595634,0.0,0.008070825856923392,,,,,,
24624,,0.0027275501640344757,0.0027275501640344757,0.0,0.00804660076584561,,,,,,
24625,,0.0036430914778362578,0.0036430914778362578,0.0,0.008031402003151793,,,,,,
24626,,0.00539787899595634,0.00539787899595634,0.0,0.008023449984585002,,,,,,
24627,,0.0028801403830014394,0.0028801403830014394,0.0,0.008009835470546256,,,,,,
24628,,0.004482337682154558,0.004482337682154558,0.0,0.008006341691437446,,,,,,
24629,,0.005474174105439822,0.005474174105439822,0.0,0.008010486336486376,,,,,,
24630,,0.0060845349813076766,0.0060845349813076766,0.0,0.008001326694583985,,,,,,
24631,,0.0019645990691996573,0.0019645990691996573,0.0,0.007962171400112664,,,,,,
24632,,0.002193484397650103,0.002193484397650103,0.0,0.007940474207375689,,,,,,
24633,,0.008678568703746059,0.008678568703746059,0.0,0.00795004380276365,,,,,,
24634,,0.0028038452735179575,0.0028038452735179575,0.0,0.007949485090215468,,,,,,
24635,,0.007000076295109459,0.007000076295109459,0.0,0.007962811859546035,,,,,,
24636,,0.008525978484779095,0.008525978484779095,0.0,0.00797725222569873,,,,,,
24637,,0.006466010528725086,0.006466010528725086,0.0,0.007960037487932965,,,,,,
24638,,0.002040894178683139,0.002040894178683139,0.0,0.007928031707648806,,,,,,
24639,,-0.00017166399633783413,-0.00017166399633783413,0.0,0.007902557933933473,,,,,,
24640,,0.007763027389944278,0.007763027389944278,0.0,0.007907497146679859,,,,,,
24641,,0.0070763714045929405,0.0070763714045929405,0.0,0.007918123081100173,,,,,,
24642,,0.011272602426184442,0.011272602426184442,0.0,0.007944157042915005,,,,,,
24643,,0.008754863813229541,0.008754863813229541,0.0,0.007943605084860583,,,,,,
24644,,0.004634927901121522,0.004634927901121522,0.0,0.007910021988618971,,,,,,
24645,,0.0007438773174639479,0.0007438773174639479,0.0,0.007886229603746953,,,,,,
24646,,0.00165941863126573,0.00165941863126573,0.0,0.00787837519838158,,,,,,
24647,,0.0047112230106050035,0.0047112230106050035,0.0,0.007875160541602531,,,,,,
24648,,0.007763027389944278,0.007763027389944278,0.0,0.007888044997039934,,,,,,
24649,,0.008983749141679986,0.008983749141679986,0.0,0.007904543274498585,,,,,,
24650,,0.007839322499427759,0.007839322499427759,0.0,0.00791739190081662,,,,,,
24651,,0.002651255054550994,0.002651255054550994,0.0,0.007865480533746128,,,,,,
24652,,0.0015831235217822481,0.0015831235217822481,0.0,0.007796769720410791,,,,,,
24653,,0.004100862134737149,0.004100862134737149,0.0,0.007757574543429198,,,,,,
24654,,0.007228961623559904,0.007228961623559904,0.0,0.007765481062368792,,,,,,
24655,,0.011348897535667923,0.011348897535667923,0.0,0.0078007556225668144,,,,,,
24656,,0.010433356221866141,0.010433356221866141,0.0,0.007831032433276115,,,,,,
24657,,0.0019645990691996573,0.0019645990691996573,0.0,0.007830814282699902,,,,,,
24658,,-0.0046730754558632626,-0.0046730754558632626,0.0,0.00782672647136373,,,,,,
24659,,0.0010490577553978753,0.0010490577553978753,0.0,0.00780322743243711,,,,,,
24660,,0.00623712520027464,0.00623712520027464,0.0,0.007799040790398249,,,,,,
24661,,0.004406042572671076,0.004406042572671076,0.0,0.007795263422783232,,,,,,
24662,,0.010585946440833105,0.010585946440833105,0.0,0.007824555620741145,,,,,,
24663,,0.012188143739986224,0.012188143739986224,0.0,0.00785586269522395,,,,,,
24664,,0.005092698558022413,0.005092698558022413,0.0,0.007849917398051347,,,,,,
24665,,0.001125352864881357,0.001125352864881357,0.0,0.007825343179548815,,,,,,
24666,,0.006008239871824195,0.006008239871824195,0.0,0.007821609253764001,,,,,,
24667,,0.00539787899595634,0.00539787899595634,0.0,0.007824217609180603,,,,,,
24668,,0.005321583886472858,0.005321583886472858,0.0,0.007824330011774598,,,,,,
24669,,0.009899290455481768,0.009899290455481768,0.0,0.007838947996344714,,,,,,
24670,,0.007381551842526868,0.007381551842526868,0.0,0.007835141416474439,,,,,,
24671,,0.004482337682154558,0.004482337682154558,0.0,0.00782315415221228,,,,,,
24672,,0.002956435492484921,0.002956435492484921,0.0,0.007798522372872937,,,,,,
24673,,0.0070763714045929405,0.0070763714045929405,0.0,0.007786196764600388,,,,,,
24674,,0.011425192645151405,0.011425192645151405,0.0,0.007799519423871073,,,,,,
24675,,0.012645914396887115,0.012645914396887115,0.0,0.00783622585438952,,,,,,
