-0.020733196
-0.013485161
0.008793011
0.002307927
0.005817502
0.018482490272373475
0.020542458228427485
0.019703212024109185
0.03938735
0.052510109
0.061589227
0.061360342
0.054264896620126825
0.050755322
0.042286564
0.054112306
0.052433814
0.051289387
0.041599908
0.033131151
0.020847638666361412
0.017338063630121248
0.023212787
0.028934920271610487
0.021457999542229267
0.005970092
0.008487831
0.006733043
0.009098192
0.006198978
0.002079042
0.000171664
0.001316091
-0.000514992
-0.006847486
0.003986419
0.009555962
0.016193637
0.00085832
-0.005474174
-0.012188144
0.001392386
0.00772488
0.016422522316319466
0.016880292973220357
-0.004711223
-0.006389715
-0.007381552
0.008335241
0.011310749980926182
0.005893797
0.008869306
0.001544976
-0.000896468
-0.001430533
0.008487831
0.007190814
0.003147173
0.001926452
-0.00272755
-0.00288014
-0.000209812
0.006122683
0.009555962
0.013218127718013228
0.006961929
9.53688868543523e-05
-0.00631342
-0.00272755
0.003681239
0.013218127718013228
0.014438849469748938
-0.001812009
-0.006771191
-0.000896468
0.01161593
0.009555962
0.012607766842145374
0.006275273
-0.000209812
-5.72E-05
-0.00631342
0.006885634
0.014438849469748938
0.009479667
-0.001430533
0.002079042
-0.000667582
0.006198978
0.006275273
0.006198978
0.006885634
0.001850156
-0.002193484
-0.000896468
0.008564126
0.007038224
0.012607766842145374
0.005588617
9.53688868543523e-05
0.002803845
0.001964599
0.007991913
0.014095521
0.016384374761577725
0.00616083
0.003795682
-0.006351568
0.005092699
0.011806668192568814
0.01661326
0.016384374761577725
-0.004215305
-0.006122683
-0.003528649
0.013714046
0.008144503
0.001735714
0.011425192645151405
0.003109026
0.001964599
0.00272755
0.00616083
0.006694896
0.016079194323643797
0.011806668192568814
0.004558633
-0.004825666
0.004406043
0.01661326
0.01661326
0.019436179140916998
0.010051880674448732
0.004787518
0.000743877
0.010357061
0.019665064469367444
0.026226444
0.013179980163271487
0.000743877
-0.001621271
-0.00055314
0.014171816586556751
0.023937590600442427
0.020656900892652708
0.000286107
-0.001544976
0.000286107
0.011730373083085333
0.00989929
0.010738536659800069
0.007763027
0.000438697
-0.001926452
-0.00070573
0.008449683
0.012951094834821042
0.020275425
0.003948272
-0.001468681
-0.001392386
0.004406043
0.011348897535667923
0.016155489
0.003566796
0.001964599
0.001583124
-0.003528649
0.005092699
0.015774014
0.019588769359883962
0.00616083
0.001430533
0.00226978
-0.003299763
0.004482338
0.006237125
0.011959258411535778
0.00585565
5.722133211261138e-05
-0.00055314
-0.005893797
0.000667582
0.018749523
0.018596932936598698
0.004177157
0.00272755
-0.005970092
-0.009021897
0.005550469
0.012645914396887115
0.017605096513313434
0.003185321
-0.010166323
-0.001926452
0.017986572060730843
0.010433356221866141
0.009822995
0.008831159
0.011959258411535778
-0.00600824
-0.012645914
0.005130846
0.013828488593881083
0.003986419
0.000324254
0.001316091
0.001926452
0.010852979324025291
0.00055314
-0.000438697
-0.002193484
-0.007763027
-0.007686732
-0.011043717
0.005741207
0.009174487
0.011539635309376628
-0.003185321
-0.008602274
-0.007839322
-0.007534142
-0.004940108
0.00772488
0.014133669
0.005283436
-0.000972763
-0.00585565
0.005207141
0.012073701
0.010318913557640919
0.009021897
0.007648585
0.006885634
1.907377737087046e-05
0.013065537499046265
0.017261768520637766
0.020084687571526594
0.009555962
0.008335241
0.008793011
0.009021897
0.016880292973220357
0.019474327
0.018406195162889993
0.013141832608529747
0.002002747
0.004062715
0.010929274433508773
0.019245441367208294
0.022373541
0.014972915
0.008640421
0.002994583
0.002307927
0.013218127718013228
0.016498817425802947
0.020771344
0.013828488593881083
0.007495995
0.003528649
0.003910124
0.010471503776607882
0.011768520637827073
0.019398031586175257
0.008640421
0.005893797
0.005970092
0.012531471732661892
0.012378881513694928
0.011768520637827073
0.013523308155947156
0.006275273
0.000324254
-0.001201648
0.008564126
0.009632258
0.014591439688715901
0.013675898
0.006809339
0.007953765
0.011387045090409664
0.005359731
0.003376059
0.00818265
-0.00257496
0.00803006
0.009861143
0.011539635309376628
0.013675898
0.018177309834439548
0.010242618448157437
-0.003337911
-0.003795682
0.004749371
0.021381704432745785
0.014896620126649829
0.012989242389562783
0.00101091
0.002689403
0.002079042
0.003070878
0.008869306
0.018787670710307403
0.022678721293964976
0.005359731
-0.001812009
-0.010051881
0.001316091
0.013370717936980192
0.015506981002517684
0.015735866
0.006275273
-0.00257496
-0.004177157
0.006885634
0.016346227206835984
0.013447013046463674
0.005359731
0.000324254
-0.000896468
-0.001354238
0.011844815747310555
0.021000228885328376
0.017032883
-0.001812009
-0.002117189
0.001316091
0.011997405966277519
0.013294423
0.017719539177538657
0.011234455
-0.000438697
-0.005703059
0.002384222
0.0183299
0.016117341878385538
0.016575113
0.009861143
0.0042916
-0.000820172
-0.000133516
0.006885634
0.008564126
0.012531471732661892
0.011081864652475737
0.008716716
-0.008297093
0.006122683
0.014667734798199383
0.017795834
0.003910124
0.000324254
-0.007839322
-0.002956435
0.012149996185244483
0.013904783703364565
0.0183299
0.007419699
-0.002040894
-0.00944152
0.000247959
0.021305409323262303
0.010471503776607882
0.009250782
-0.000133516
-0.004711223
-0.00242237
0.006885634
0.012760357061112337
0.014438849469748938
0.015201800564583756
0.004749371
0.00085832
0.001697566
0.006580453
0.001392386
0.020237277790493557
0.014744029907682865
0.00787747
0.005130846
0.004978256
0.010166323338673955
0.016575113
0.015888456549935093
0.006427863
0.004367895
0.006961929
0.015354391
0.002002747
0.007343404
0.009250782
0.004901961
0.000171664
0.00055314
0.009174487
0.014362554360265456
0.017338063630121248
0.003223468
-0.013790341
-0.006542306
-0.003871977
0.010700389105058328
0.015735866
0.011997405966277519
0.001392386
-0.001735714
0.001316091
0.013141832608529747
0.006198978
0.006427863
0.010776684
0.002994583
0.004520485
0.002613107
0.006351568
0.01863508
0.018940260929274366
0.009632258
0.005970092
0.003833829
-0.001277943
0.012836652
0.017566948958571693
0.017032883
0.002155337
0.003070878
-0.003337911
0.007267109
0.023365377279316313
0.027180132753490405
0.004978256
-0.000133516
-0.007000076
-0.001430533
0.014438849469748938
0.016956588
0.013447013046463674
0.008640421
0.00459678
0.005741207
0.001468681
0.006809339
0.018558785381856957
0.009174487
0.003757534
0.001773861
0.000934615
0.007419699
0.006122683
0.006198978
0.019169146
0.008411536
-0.00257496
0.000247959
0.007495995
-0.000133516
0.005359731
0.001850156
0.0011635
0.006427863
0.002613107
0.002384222
0.007648585
0.004520485
-0.000286107
-0.004711223
-0.004100862
0.014744029907682865
0.008487831
0.003070878
0.005130846
-0.000362402
0.003147173
0.001850156
0.010929274433508773
0.011463340199893146
0.015735866
0.007953765
0.003376059
0.002841993
0.00787747
0.015354391
0.013675898
0.012989242389562783
0.003147173
0.005588617
0.004520485
0.008564126
0.015659571221484647
0.019169146
0.011158159761959219
0.004520485
-0.008602274
-0.003414206
0.013218127718013228
0.017490654
0.009327077
0.011539635309376628
0.00803006
-0.010929274
-0.002155337
0.010051880674448732
0.011806668192568814
0.008678569
-0.002155337
-0.002765698
-0.000324254
0.013637750820172378
0.011577782864118369
0.008525978
0.012035554
0.000972763
-0.002460517
-0.001316091
0.008525978
0.007991913
0.016689555199511652
0.010585946440833105
0.00272755
0.002498665
0.002040894
0.00928893
0.013714046
0.012188143739986224
0.001659419
-9.54E-05
-0.001773861
0.005092699
0.012417029068436669
0.014629587243457642
0.009975586
0.004100862
-0.0011635
-0.001468681
0.009670405
0.010662241550316587
0.017376211
0.003109026
0.00257496
-0.002765698
0.001201648
0.011348897535667923
0.017605096513313434
0.010814832
0.00257496
0.000972763
0.004558633
0.010814832
0.007763027
0.008983749
-0.00070573
0.002346075
0.004406043
0.001354238
0.010891126878767032
0.00944152
0.004558633
-0.004825666
-0.009174487
-0.000629435
0.012951094834821042
0.012569619287403633
0.004482338
0.001354238
-0.008564126
-0.002689403
0.003032731
0.021953918
0.022640573739223235
0.016689555199511652
0.014248111696040233
0.012340733958953187
0.017833982
0.020428015564202262
0.032864118
0.038433661402303976
0.045986877241169045
0.039654383
0.031490806
0.029430838
0.045300221255817716
0.044766155489433336
0.04797055
0.052319371
0.043087663
0.034618905928129884
0.024395361257343318
0.018291752
0.03408484
0.035076676585030775
0.029125658
0.014476997024490679
0.006466011
-0.005588617
-0.012531472
-0.03595407
-0.057087816
-0.071202411
-0.06029221
-0.050679026
-0.051747158
-0.045567254
-0.062581064
-0.085011826
-0.080052644
-0.085774777
-0.085469596
-0.092107271
-0.090581369
-0.066700999
-0.056630045
-0.040531777
-0.035038529
-0.015278096
5.722133211261138e-05
0.003643091
0.009822995
0.011196307
0.013179980163271487
0.020428015564202262
0.037518120088502194
0.059185931
0.070401312
0.066357671
0.059567407
0.056134127
0.070096132
0.064297704
0.055218585
0.057278553
0.058499275196460074
0.050488288700694474
0.036907759
0.027141985198748664
0.031643397
0.032711528
0.032787823
0.021877622644388417
0.011654078
0.007610437
0.006618601
0.009060044
0.013179980163271487
0.007534142
0.00989929
0.004253452
-0.005664912
0.005550469
0.011577782864118369
0.006771191
0.005931945
0.008602274
0.000591287
-0.000400549
0.008602274
0.011120012207217478
0.011120012207217478
0.008754864
0.007457847
0.009212634
0.014705882352941124
0.014476997024490679
0.011348897535667923
0.010509651331349623
0.000362402
0.008220798
0.007381552
0.012493324177920151
0.016765850308995134
0.012493324177920151
0.011272602426184442
0.004177157
0.010128175783932214
0.007839322
0.015697718776226388
0.015774014
0.010433356221866141
0.004406043
0.003414206
0.002346075
0.003337911
0.013332570382238451
0.022182803082322344
0.017223620965896025
0.004024567
0.008525978
0.00600824
0.010662241550316587
0.015087357900358533
0.011043717097733996
0.00272755
-0.005359731
0.00242237
0.010128175783932214
0.017681391622796916
0.023327229724574572
0.013103685053788006
0.001430533
0.003566796
0.001621271
0.00085832
0.003681239
0.008869306
0.005970092
0.001468681
0.003604944
0.004978256
0.008411536
0.020466163118944003
0.015278095674067238
0.007038224
-0.007000076
-0.013942931
-0.002040894
0.013599603265430638
0.017566948958571693
0.020923933775844894
0.011310749980926182
0.012455177
-0.00288014
-0.004253452
0.006198978
0.012989242389562783
0.012989242389562783
0.00413901
0.008106355
0.007801175
0.009632258
0.016575113
0.010090028229190473
0.006809339
0.005207141
0.001239796
-0.000667582
0.012073701
0.011921110856794037
0.014744029907682865
0.005664912
0.004749371
0.005359731
0.004062715
0.011005569542992255
0.011844815747310555
0.009555962
0.004673075
-0.004482338
0.006198978
0.018863965819790884
0.019398031586175257
0.018253605
0.010318913557640919
-0.001049058
-0.003948272
0.008487831
0.015201800564583756
0.016651408
0.022526131074998013
0.013370717936980192
0.001850156
0.000476844
0.003604944
0.006351568
0.016422522316319466
0.015888456549935093
0.005359731
-0.006923781
-0.007763027
0.006885634
0.010929274433508773
0.009937438
0.008487831
0.001392386
-0.004558633
-0.00272755
0.006198978
0.005359731
0.008106355
0.005588617
0.002307927
0.002536812
0.010395209
0.009632258
0.008106355
0.009021897
-0.001354238
0.002231632
0.005130846
0.011081864652475737
0.011768520637827073
0.016193637
0.012531471732661892
0.001392386
-0.008297093
-0.000286107
0.011539635309376628
0.013065537499046265
0.005741207
0.000782025
0.002841993
0.005626764
0.003643091
0.003566796
0.010509651331349623
0.006618601
0.000667582
0.001659419
-0.000400549
0.006542306
-0.001544976
0.005245289
0.013332570382238451
0.010433356221866141
-0.004673075
-0.007953765
0.007457847
0.00928893
0.012111848630502742
-0.001239796
0.000972763
-0.006198978
-0.002155337
0.00600824
0.011272602426184442
0.004558633
-0.007419699
-0.005436027
-0.002689403
-0.003604944
0.00944152
0.013103685053788006
0.005703059
-0.008335241
-0.014972915
-0.001544976
0.008220798
0.008373388
0.002498665
0.001277943
-0.001926452
-0.002918288
-0.00101091
0.014934768
0.025005722133211172
-0.00055314
-0.010013733
-0.008564126
0.003795682
0.011577782864118369
0.018825818265049143
0.018902113374532625
0.009975586
0.004863813
-0.001773861
0.000362402
0.008144503
0.014553292
0.01989395
0.013027389944304524
0.010662241550316587
0.007457847
0.00989929
0.014934768
0.021496147096971008
0.014400701915007197
0.008525978
0.013179980163271487
0.011043717097733996
0.014400701915007197
0.021267261768520562
0.022869459
0.017528801403829952
0.004024567
0.007457847
0.014400701915007197
0.016842145418478616
0.021267261768520562
0.018139162279697807
0.013103685053788006
0.005626764
-0.001468681
0.004100862
0.014171816586556751
0.014629587243457642
0.008068208
0.006084535
0.005779355
0.005931945
0.011501487754634887
0.004863813
0.009822995
0.003185321
-0.002002747
-0.00101091
0.008297093
0.018062867170214325
0.017605096513313434
0.014248111696040233
0.011120012207217478
0.006237125
0.00226978
0.007076371
0.007381552
0.015850308995193352
0.013790341039139342
0.008220798
0.003948272
0.007305257
0.018749523
0.018215457
0.007610437
0.006847486
-0.001697566
-0.002994583
0.005626764
0.010814832
0.012722209506370596
0.012264438849469705
0.006694896
0.010204470893415696
0.007915618
0.004406043
0.004253452
0.006084535
0.001354238
-0.001621271
0.006771191
0.014324406805523715
0.023250935
0.021343556878004044
0.018215457
0.006618601
-0.010929274
-0.010929274
-0.001316091
0.007763027
0.019512474
0.017681391622796916
0.007686732
0.004024567
0.014934768
0.008449683
-0.0042916
-0.006198978
-0.002002747
-0.00459678
-0.005054551
-0.006046387
0.022793164
0.022564278629739754
0.008373388
0.00288014
-0.007648585
-0.00803006
-0.001087205
0.012340733958953187
0.020580605783169226
0.0128748
0.004787518
0.003643091
0.007610437
0.012722209506370596
0.017147325856412543
0.021496147096971008
0.014095521
0.006389715
0.00288014
0.004406043
0.010891126878767032
0.015392538338292459
0.017071031
0.01661326
0.005016403
0.002346075
0.003261616
0.008297093
0.012951094834821042
-0.001850156
-0.0011635
0.000209812
0.003185321
0.00944152
0.007534142
0.013485160601205415
0.00242237
-0.003452354
-0.004749371
0.001964599
0.00928893
0.008068208
0.010967421988250514
0.011806668192568814
0.001888304
-0.009021897
0.001812009
0.013485160601205415
0.014324406805523715
0.012798504615854078
0.009670405
0.002803845
0.002079042
0.008258946
0.012989242389562783
0.013828488593881083
0.011310749980926182
0.006198978
-0.000133516
0.002536812
0.012684061951628856
0.020618753337910967
0.019092851
0.009174487
0.002536812
-0.002651255
0.007190814
0.014820325017166347
0.013828488593881083
0.010852979324025291
0.003986419
-0.001277943
-0.005550469
0.005283436
0.005588617
0.009861143
0.006885634
0.006427863
-0.000286107
0.004825666
0.002384222
0.010318913557640919
0.002307927
0.000324254
0.002384222
0.003147173
0.00459678
0.008640421
0.017261768520637766
0.013904783703364565
0.011081864652475737
0.007267109
0.007038224
0.003528649
0.01161593
0.013370717936980192
0.010318913557640919
0.008869306
0.004749371
0.004901961
0.016651408
0.017414359
0.018558785381856957
0.014896620126649829
-0.00242237
-0.00585565
0.0042916
0.017719539177538657
0.02161059
0.017338063630121248
0.008487831
0.009098192
0.001544976
0.009327077
0.012149996185244483
0.012836652
0.004673075
0.00772488
0.002460517
0.005817502
0.009708553
0.014438849469748938
0.012149996185244483
0.001087205
-0.002498665
-0.006542306
-0.000972763
0.011005569542992255
0.010090028229190473
0.003757534
-0.003185321
-0.007305257
-0.006618601
-0.003795682
0.00772488
0.014057373922331529
0.008487831
0.004825666
-0.008373388
-0.007000076
0.000400549
-0.000362402
0.009327077
0.014667734798199383
0.005512322
0.000934615
0.011310749980926182
0.009403372
0.003986419
0.007267109
0.010471503776607882
0.011844815747310555
0.000972763
-0.003223468
0.009136339
0.024090181
0.008220798
0.003490501
0.002346075
0.009517815
0.008373388
0.006771191
0.017376211
0.00242237
-0.0011635
-0.002079042
0.003795682
0.015697718776226388
0.024090181
0.011730373083085333
0.001201648
-0.004520485
-1.91E-05
0.000514992
0.006237125
0.008220798
0.007305257
0.00585565
0.002651255
0.005168994
0.010051880674448732
0.009060044
0.008602274
0.002956435
-0.008716716
-0.007801175
0.003719387
0.012951094834821042
0.017757686732280398
0.016079194323643797
-0.005359731
-0.006809339
-0.004367895
0.006237125
0.018291752
0.015392538338292459
0.000286107
-0.008106355
-0.00787747
0.001964599
0.015392538338292459
0.0097467
0.013332570382238451
0.008754864
-0.005741207
-0.008564126
0.004634928
0.001964599
0.013103685053788006
-0.000629435
0.003185321
0.007152667
-0.001773861
0.005779355
0.010357061
0.018062867170214325
0.00616083
-0.010318914
-0.014515145
-0.000171664
0.004406043
0.011120012207217478
0.012798504615854078
0.012951094834821042
0.00631342
-0.000476844
0.004940108
0.004177157
0.007763027
0.005550469
0.005397879
-0.007495995
-0.000629435
0.013714046
0.01989395
0.020199130235751817
0.019207293812466553
0.017605096513313434
0.014782177462424606
0.019665064469367444
0.023022049286640645
0.035152972
0.030422674906538383
0.024853132
0.019130999
0.026760509651331255
0.043163958
0.050717174029144926
0.042477302
0.0440795
0.042782483
0.043545433737697634
0.027141985198748664
0.028973067826352228
0.039578088
0.039578088
0.032711528
0.02035172
0.014400701915007197
0.02363241
0.013485160601205415
-0.006351568
-0.021305409
-0.045109483
-0.055104143
-0.05655375
-0.036945907
-0.038471809
-0.031681544
-0.072270542
-0.080586709
-0.079518578
-0.088826581
-0.086156252
-0.069981689
-0.079137102
-0.071049821
-0.062428473
-0.045567254
-0.038242924
-0.010471504
-0.011921111
-0.002994583
-0.00772488
-0.001392386
-1.91E-05
0.026455329213397327
0.042095827
0.052624552
0.056439307240406064
0.056515602
0.061932555
0.055600061036087764
0.047360189211871725
0.049801633
0.060177768
0.056515602
0.047436484
0.039044022
0.043698024
0.042324712
0.046063172350652534
0.045605402
0.020962081330586635
0.004024567
0.001583124
0.014476997024490679
0.021725032425421453
0.031414511
0.022259098191805826
0.023556115053025017
0.00959411
0.006466011
0.020580605783169226
0.016918440527962098
0.013637750820172378
0.007457847
-0.000171664
-0.006961929
0.007610437
0.017452506
0.027141985198748664
0.025387198
0.010814832
-0.008640421
-0.010547799
0.007686732
5.722133211261138e-05
0.011120012207217478
0.012493324177920151
0.00257496
0.004940108
0.008297093
0.000133516
0.010433356221866141
0.019665064469367444
0.007076371
0.001735714
0.002346075
0.005397879
0.017071031
0.03034638
0.022487984
0.001125353
0.001812009
0.003261616
0.00600824
0.021343556878004044
0.023098344396124126
0.015087357900358533
-0.000247959
-0.002613107
0.001659419
0.014858472571908088
0.013256275
0.017528801403829952
0.008525978
0.003643091
-0.008564126
-0.003757534
0.00272755
0.010585946440833105
0.017452506
0.012493324177920151
0.012569619287403633
0.001812009
0.008678569
0.011501487754634887
0.015011062790875052
0.007915618
0.005168994
0.004863813
0.001430533
-0.002155337
0.008068208
0.024395361257343318
0.008831159
0.002193484
0.006542306
0.016765850308995134
0.012264438849469705
0.005474174
-0.005664912
-0.014209964
-0.007114519
0.00585565
0.012645914396887115
0.011577782864118369
0.022716868848706717
0.019359884031433516
0.004711223
0.000743877
-0.006961929
-0.001697566
0.004482338
0.015392538338292459
0.013485160601205415
-9.54E-05
0.008831159
0.019054704
0.024242771038376354
0.010662241550316587
0.004634928
0.004177157
0.007305257
0.003261616
0.012798504615854078
0.013942931258106306
0.0128748
0.013179980163271487
0.001583124
-0.002613107
0.001735714
0.010891126878767032
0.014858472571908088
0.01661326
0.006923781
0.001888304
-0.017414359
0.004100862
0.015163653009842015
0.015850308995193352
0.017452506
0.006237125
-0.014362554
-0.015278096
0.012035554
0.022487984
0.022869459
0.019741359578850926
0.010280766002899178
0.000209812
-0.005359731
0.001125353
0.008754864
0.02035172
0.004634928
0.008144503
0.000438697
0.006694896
0.010128175783932214
0.024547951
0.012951094834821042
-0.00444419
-0.018406195
-0.012378882
0.00989929
0.013942931258106306
0.008907454
0.004787518
0.000286107
0.001049058
0.004024567
0.006237125
0.011654078
0.011730373083085333
0.002956435
-0.00459678
-0.003986419
0.001354238
0.024166475928892872
0.020809491
0.02035172
0.007228962
-0.002994583
-0.00444419
0.010585946440833105
0.013179980163271487
0.015239948119325497
0.011425192645151405
0.010738536659800069
0.00288014
-0.006961929
-0.001468681
0.005550469
0.014629587243457642
0.003490501
0.010509651331349623
0.000209812
0.010051880674448732
-0.004520485
0.001659419
0.018444342717631734
-0.00413901
-0.015430686
-0.015659571
0.005703059
0.013027389944304524
0.024929427
0.010967421988250514
0.001201648
-0.006351568
-0.012607767
-0.01100557
-0.012226291
-0.001316091
-0.003070878
0.003871977
0.00944152
0.013408865491721933
0.007534142
-0.011768521
-0.012455177
0.001125353
-0.011234455
-0.016041047
-0.002536812
0.00959411
0.028286412
0.017757686732280398
0.015545128557259423
0.000438697
-0.000400549
-0.006275273
0.005703059
0.023556115053025017
0.016079194323643797
0.010585946440833105
0.003261616
0.005397879
0.023556115053025017
0.021038376440070117
0.021648737
0.016460669871061206
0.002346075
0.003948272
0.011730373083085333
0.013790341039139342
0.017223620965896025
0.017147325856412543
0.018368047608148252
0.000209812
0.00226978
0.020733196
0.021190967
0.014019226367589788
0.014400701915007197
0.014629587243457642
0.008220798
0.004711223
0.006618601
0.003490501
-0.001850156
0.018062867170214325
0.020199130235751817
0.008907454
0.017147325856412543
0.012493324177920151
0.008297093
-0.001773861
0.001354238
0.002803845
0.004215305
0.013370717936980192
0.018711376
0.013828488593881083
0.007038224
0.008869306
0.010547798886091364
0.021534295
0.009021897
0.00085832
0.000934615
0.009708553
0.015812161
0.010318913557640919
0.003833829
0.008258946
0.008335241
0.00803006
0.007114519
0.011081864652475737
0.010395209
-0.003337911
0.004901961
0.004673075
-0.002346075
-0.002193484
0.011158159761959219
0.010395209
0.010929274433508773
0.003147173
0.008793011
0.002460517
-0.00288014
0.006809339
0.014591439688715901
0.015506981002517684
0.013828488593881083
0.014896620126649829
0.005664912
0.004749371
-0.007763027
0.00413901
0.009937438
0.024204623483634613
0.022831312
0.003528649
0.002841993
0.017185473411154284
0.007801175
9.53688868543523e-05
0.007267109
0.006351568
0.004825666
0.007801175
0.001316091
0.002918288
0.012149996185244483
0.005359731
0.00101091
0.00055314
0.001239796
0.009937438
-0.002193484
-0.001125353
0.003604944
0.005970092
-0.000896468
-0.000667582
0.011692225528343592
0.007419699
0.00070573
-0.003643091
0.003070878
0.005130846
0.013599603265430638
0.013370717936980192
0.015812161
0.008793011
0.007190814
0.005359731
0.000782025
0.011539635309376628
0.016117341878385538
0.020923933775844894
0.003757534
-0.000286107
-0.004100862
0.009784848
0.022602426184481494
0.022678721293964976
0.011692225528343592
0.005512322
0.009174487
0.003147173
0.003299763
0.000324254
0.006580453
0.009403372
-0.004024567
0.002002747
0.002231632
0.013599603265430638
0.024586099031052022
0.024357213702601577
0.006656748
-0.005703059
-0.017833982
-0.002803845
0.007648585
0.009021897
0.007190814
0.006122683
0.00757229
0.006198978
0.014057373922331529
0.012912947280079301
0.017566948958571693
-0.006466011
-0.001735714
0.006198978
-0.007152667
-0.000591287
0.017566948958571693
0.018787670710307403
0.001544976
0.002079042
-0.00226978
0.011844815747310555
0.017185473411154284
0.017795834
0.0011635
-0.007076371
-0.007381552
-0.001888304
0.009861143
0.020847638666361412
0.018177309834439548
0.006733043
0.00459678
0.005359731
0.002536812
0.000324254
0.013752193484397601
0.006885634
0.014209964141298492
0.008487831
0.005207141
0.013752193484397601
0.012760357061112337
0.004978256
0.012912947280079301
0.004673075
0.002918288
-0.004787518
0.003910124
0.017414359
0.026264591439688623
0.013447013046463674
0.008945602
-0.006084535
-0.010357061
0.000171664
0.003070878
0.015812161
0.006351568
0.010547798886091364
0.006198978
0.016269932097352502
0.005664912
-0.002346075
0.001316091
0.004062715
0.0042916
0.003147173
0.005207141
0.008945602
0.016117341878385538
0.007419699
0.016575113
0.008716716
0.002231632
0.007801175
0.018253605
0.009403372
0.001087205
-0.003490501
0.000782025
0.011997405966277519
0.018787670710307403
0.023594263
0.018863965819790884
0.011539635309376628
0.005741207
-0.004024567
-0.004482338
0.003223468
0.013981078812848047
0.016727702754253393
0.012226291294727964
0.003757534
0.004329747
0.011806668192568814
0.011196307
0.019130999
0.001125353
-0.004367895
-0.005970092
0.001277943
0.005779355
0.016536965
0.018596932936598698
0.004024567
-0.010624094
-0.007953765
-0.002307927
0.009975586
0.026379034103913845
0.006618601
-0.002384222
-0.014438849
-0.021305409
0.004329747
0.018673228
0.011577782864118369
0.014400701915007197
0.011043717097733996
-0.004825666
-0.002994583
0.000820172
0.005550469
0.016536965
0.002803845
-0.001087205
-0.00413901
0.019665064469367444
0.024776836804760727
0.023479819943541536
0.0097467
0.00989929
-0.001850156
-0.006656748
0.004482338
0.00928893
0.015774014
0.017452506
0.020122835126268335
0.014934768
0.015239948119325497
0.005321584
-0.002689403
-0.002307927
0.000820172
0.007152667
0.013866636148622824
0.020275425
0.018825818265049143
0.00631342
-0.002307927
-0.003299763
0.006694896
0.007534142
0.014248111696040233
0.009975586
0.011730373083085333
0.007686732
0.004329747
0.006084535
0.0128748
0.007076371
0.007610437
0.009517815
0.001735714
0.00616083
0.005550469
0.016308079652094243
0.015926604104676834
0.009212634
0.009060044
-0.002079042
-0.005970092
-0.003452354
0.005626764
0.018062867170214325
0.016308079652094243
0.00585565
0.00257496
-0.004520485
0.005397879
-0.000934615
0.015621423666742905
0.021725032425421453
0.00959411
0.001583124
-0.006504158
0.007839322
0.011120012207217478
0.011120012207217478
0.013942931258106306
0.012188143739986224
0.000591287
0.001125353
0.014629587243457642
0.014248111696040233
0.018444342717631734
0.006923781
-0.000476844
-0.00757229
-0.009327077
0.002040894
0.009212634
0.020580605783169226
0.016460669871061206
0.006466011
-0.014820325
0.006389715
-0.002384222
-0.002536812
0.015163653009842015
0.007991913
-0.006656748
0.00944152
0.017071031
0.019436179140916998
0.014858472571908088
0.012569619287403633
0.012188143739986224
0.014400701915007197
0.031109330891889716
0.037899596
0.03362707
0.036831464
0.025082017242694654
0.029507134
0.031795986877241056
0.042858778
0.044460975
0.052090486
0.037060349
0.035915922789349075
0.042019532
0.053540093080033754
0.041180285
0.038738842
0.025234607461661618
0.008983749
0.001888304
0.00928893
0.027065690089265182
0.021648737
0.017986572060730843
-0.006656748
-0.02847715
-0.059910735
-0.085317006
-0.054188602
-0.035114824
-0.03580148
-0.039311055
-0.073491264
-0.094472419
-0.084554055
-0.074711986
-0.063344015
-0.064259556
-0.08432517
-0.079594873
-0.072880903
-0.048084993
-0.026874952
-0.007419699
-0.006961929
-0.006580453
-0.013599603
-0.014209964
0.0128748
0.034618905928129884
0.051022354467078854
0.04110399
0.05125124
0.047817959868772617
0.052090486
0.052853437
0.059033341
0.064068818
0.05468452
0.050488288700694474
0.042401007
0.053845273517967675
0.046749828336003864
0.045834287
0.050411994
0.024471656
0.008220798
0.00944152
0.024776836804760727
0.014705882352941124
0.025844968337529473
0.016079194323643797
0.007381552
0.007000076
0.001544976
0.004215305
0.010929274433508773
0.009708553
0.003299763
0.001773861
-0.005245289
0.000400549
-0.004177157
0.008411536
0.002765698
0.005512322
0.00787747
0.004978256
0.011921110856794037
0.009708553
0.005588617
-0.001888304
-0.006084535
-0.005245289
0.00444419
0.021076523994811858
0.024357213702601577
0.01863508
0.005741207
0.003757534
-0.005703059
-0.00288014
0.00772488
0.013599603265430638
0.026264591439688623
0.012607766842145374
0.006046387
0.004825666
0.006885634
-0.001888304
0.012378881513694928
0.013141832608529747
0.007343404
0.000476844
0.003757534
0.011692225528343592
0.011310749980926182
0.006733043
0.003528649
0.017032883
0.002460517
-0.003719387
0.002765698
0.005588617
0.015506981002517684
0.005359731
-0.003261616
0.002307927
0.018787670710307403
0.016041046768902056
0.011997405966277519
0.006198978
0.007648585
-0.004787518
-0.007763027
0.00413901
0.016117341878385538
0.026493476768139068
0.017032883
0.003376059
0.007419699
0.010013733119706991
0.00413901
0.00459678
0.00818265
0.003299763
0.003681239
0.015964751659418575
0.012760357061112337
0.013752193484397601
0.003528649
0.006275273
-0.003566796
0.006275273
0.002689403
0.0042916
0.005588617
0.010624093995574846
0.001926452
0.00444419
0.005664912
0.000782025
0.012989242389562783
0.002689403
0.003299763
0.010624093995574846
0.001316091
0.002689403
0.010700389105058328
0.019703212024109185
0.018024719615472584
0.014057373922331529
0.001697566
0.003376059
0.005970092
0.015506981002517684
0.021152819
0.018406195162889993
0.015125505455100274
0.007038224
0.003528649
0.010776684
0.02161059
0.014820325017166347
0.014057373922331529
0.005741207
0.000247959
0.002155337
0.008487831
0.01863508
0.017109178301670802
0.011005569542992255
0.004749371
0.000324254
-0.001888304
0.010471503776607882
0.010013733119706991
0.006733043
0.009708553
0.011234455
0.005054551
0.005664912
0.013599603265430638
0.011158159761959219
0.006504158
0.012607766842145374
0.004825666
0.0011635
0.006046387
0.003070878
0.017948424505989102
0.016727702754253393
0.008640421
0.012302586404211446
-0.008373388
0.005970092
0.014286259250781974
0.007114519
0.004215305
-0.002193484
-0.003566796
0.012378881513694928
0.017338063630121248
0.008487831
0.011310749980926182
9.53688868543523e-05
-0.011882963
-0.008220798
0.014133669
0.013065537499046265
0.021076523994811858
0.001468681
0.003147173
0.001087205
-0.015316243
0.005207141
0.025501640344853804
0.021915770199130158
-0.006923781
-0.004406043
-0.009136339
0.014362554360265456
0.009479667
0.013141832608529747
0.016193637
0.003452354
-0.008678569
-0.001430533
0.011081864652475737
0.001621271
-0.000591287
0.002231632
0.005130846
0.002918288
0.007038224
0.003452354
0.00444419
0.00787747
-0.011501488
-0.005931945
-0.00989929
-0.001506828
0.009861143
0.0042916
0.009479667
-0.003643091
-0.010738537
0.002384222
0.003910124
0.000324254
0.00757229
0.004673075
-0.000591287
0.002841993
0.003604944
0.012684061951628856
0.015201800564583756
0.014133669
-0.008068208
-0.006618601
-0.000743877
0.017338063630121248
0.025425345235370322
0.018253605
0.017261768520637766
0.003910124
-0.002956435
-0.00288014
0.010471503776607882
0.024967575
0.017414359
0.007953765
0.007038224
0.011539635309376628
0.003986419
0.011692225528343592
0.006275273
0.016422522316319466
0.011692225528343592
0.016041046768902056
0.002689403
0.005817502
0.004978256
0.023517967498283276
0.018101014724956066
0.018406195162889993
0.01161593
-0.001583124
0.009479667
0.012684061951628856
0.02161059
0.010852979324025291
0.013141832608529747
0.015812161
0.011310749980926182
0.017109178301670802
0.014438849469748938
0.006275273
-0.000514992
-0.008983749
0.000171664
0.014591439688715901
0.022297245746547567
0.013675898
0.004825666
0.000934615
-0.00226978
-0.010280766
0.000629435
0.006733043
0.008869306
-0.001201648
-0.006084535
-5.72E-05
0.017872129
0.022602426184481494
0.016727702754253393
0.005130846
-0.010814832
-0.001659419
-0.006771191
0.012760357061112337
0.014896620126649829
0.021229114
0.014591439688715901
0.003528649
0.005970092
0.010700389105058328
0.014438849469748938
0.012302586404211446
0.005283436
-0.00226978
0.002155337
0.009555962
0.003604944
0.003376059
0.004978256
0.008258946
0.005588617
0.002918288
0.006046387
0.011081864652475737
0.005741207
0.002231632
-0.005321584
-0.004253452
-0.006084535
-0.000133516
0.010776684
0.011921110856794037
0.019550622
0.005893797
0.008411536
0.003452354
-0.004177157
0.0042916
0.009479667
0.015354391
-0.001812009
0.003757534
0.005512322
0.014744029907682865
0.029774166475928787
0.008945602
0.003681239
0.001316091
-0.009670405
-0.00226978
0.024738689250018986
0.019550622
0.017109178301670802
0.000400549
-0.003032731
-0.006694896
0.006046387
0.009327077
0.014896620126649829
0.025730526
0.010013733119706991
0.002307927
-0.003719387
-0.000972763
0.010624093995574846
0.013141832608529747
0.012073701
0.01161593
0.000476844
0.008640421
0.013752193484397601
0.014133669
0.014820325017166347
-0.005931945
-0.0097467
0.002765698
0.022220950637064085
0.024738689250018986
0.012989242389562783
0.005512322
-0.009212634
-0.003643091
0.000400549
-0.00288014
0.012607766842145374
0.019626916914625703
0.013065537499046265
0.004367895
0.005207141
-0.004482338
-0.002498665
0.006504158
0.001926452
-0.001659419
0.001316091
0.004520485
0.011005569542992255
0.017643244068055175
0.014057373922331529
0.003147173
-0.003566796
-0.004329747
-0.005474174
0.010090028229190473
0.025501640344853804
0.018482490272373475
0.007953765
0.002231632
-0.003795682
0.010090028229190473
0.009632258
0.014515145
0.023746852826733722
0.005436027
0.008793011
0.002613107
-0.004100862
0.010700389105058328
0.015888456549935093
0.017032883
0.001468681
0.000324254
0.001544976
0.012455177
0.011692225528343592
0.008258946
0.00757229
0.001850156
-0.003261616
-0.00226978
0.009174487
0.016956588
0.012836652
0.004062715
1.907377737087046e-05
0.002460517
0.009250782
0.011310749980926182
0.016041046768902056
0.008258946
0.004367895
-0.005703059
0.002307927
0.009327077
0.014515145
0.019932097
0.015201800564583756
-0.001506828
0.001926452
-0.003109026
0.014057373922331529
0.012455177
0.014209964141298492
-0.002498665
-0.005016403
-0.003414206
0.003147173
0.015278095674067238
0.024738689250018986
0.011387045090409664
0.00818265
0.00101091
-0.009212634
0.002689403
0.00085832
0.00055314
0.017490654
0.012760357061112337
0.016575113
0.012989242389562783
0.006122683
0.018101014724956066
0.017185473411154284
0.005207141
0.003299763
0.002155337
-0.000286107
0.02206836
0.021381704432745785
0.022907606622415422
0.015430685893034202
0.006122683
0.009632258
0.008869306
0.013904783703364565
0.011692225528343592
0.003986419
0.005817502
-0.003871977
0.005817502
0.008869306
0.009327077
0.011081864652475737
0.013904783703364565
0.001621271
-0.004558633
0.000476844
-0.003414206
-0.007228962
0.001773861
-0.002193484
-0.004787518
0.005054551
0.014286259250781974
0.008716716
-0.00616083
0.007648585
-0.011043717
-0.014476997
-0.00944152
0.000934615
0.009708553
0.011005569542992255
0.002460517
0.011539635309376628
0.009937438
-0.007763027
-0.007228962
0.007114519
0.001850156
0.004215305
0.007801175
0.00757229
0.019474327
0.015964751659418575
0.014515145
0.013447013046463674
0.008564126
-0.000514992
0.004978256
0.012531471732661892
0.017643244068055175
0.031605249
0.016727702754253393
0.003223468
0.007419699
0.010090028229190473
0.016041046768902056
0.014133669
0.008335241
-0.008373388
0.009555962
0.008487831
0.003147173
0.013370717936980192
0.001239796
0.005130846
-0.001583124
-0.00226978
0.006351568
0.006733043
0.001392386
0.000171664
0.001392386
-0.000362402
-0.001049058
0.002079042
0.003604944
0.011158159761959219
0.008487831
-0.010814832
0.001544976
0.000782025
0.008869306
0.010471503776607882
0.014667734798199383
0.008564126
-0.002346075
0.005436027
-0.002498665
0.005664912
0.008564126
0.014972915
0.003147173
0.000629435
0.007190814
0.010090028229190473
0.003833829
0.003452354
-0.001583124
0.000171664
0.010471503776607882
9.53688868543523e-05
-0.009365225
0.007801175
0.004901961
0.014057373922331529
0.004520485
-0.007076371
-0.0128748
0.004901961
0.015125505455100274
0.015659571221484647
0.008945602
-0.000438697
-0.010509651
-0.004863813
0.010852979324025291
0.019169146
0.013218127718013228
0.003299763
-0.000133516
-0.002117189
0.005817502
0.010471503776607882
0.004978256
0.00459678
0.007495995
-0.003643091
0.005817502
0.015888456549935093
0.016117341878385538
0.00444419
0.004749371
0.019092851
0.009403372
0.008716716
0.019855802
0.031147478
0.038090333
0.028095674067292187
0.015430685893034202
0.019321736476691775
0.028019378957808705
0.046711681
0.041218433
0.041218433
0.033207446
0.033741512
0.033970397
0.041676204
0.028248264
0.02534905
0.013065537499046265
0.023670558
0.020771344
0.015850308995193352
0.021114672
0.020122835126268335
0.001049058
-0.027790494
-0.044422827
-0.052662699
-0.042591745
-0.037785153
-0.032749676
-0.047779812
-0.068455787
-0.080128939
-0.075017166
-0.064183261
-0.062046998
-0.062504768
-0.058155947
-0.08119707
-0.073491264
-0.055867094
-0.037174792
-0.01459144
-0.002918288
-0.002460517
-0.003757534
0.008144503
0.020962081330586635
0.023937590600442427
0.033703365
0.043240253299763706
0.051403830014496256
0.055981536583505166
0.059719996948195776
0.057278553
0.055828946
0.059338521
0.05109865
0.046139467
0.063916228
0.057125963225757394
0.059033341
0.049496452
0.031261921
0.021419851987487526
0.011882963302052296
0.00944152
0.021419851987487526
0.027828641
0.030880445563439277
0.022106507972838862
-0.001773861
0.000514992
0.011730373083085333
0.014476997024490679
0.017299916075379507
0.010357061
-0.003528649
-0.0011635
0.005550469
0.003337911
0.016765850308995134
0.023327229724574572
0.005703059
0.00616083
0.001888304
0.008907454
0.010814832
0.014248111696040233
0.016308079652094243
0.008907454
0.004711223
0.00288014
0.012264438849469705
0.015011062790875052
0.013408865491721933
0.011120012207217478
0.004253452
0.010662241550316587
0.000743877
0.00928893
0.021114672
0.016460669871061206
0.004634928
0.004634928
0.004024567
0.00989929
0.015087357900358533
0.007686732
0.017071031
0.011120012207217478
0.004940108
0.005397879
0.004558633
0.008144503
0.014095521
0.021572442
0.000209812
0.004100862
5.722133211261138e-05
0.003757534
0.025730526
0.017490654
-0.00242237
-0.010280766
-0.004177157
-0.001964599
0.003833829
0.015125505455100274
0.018177309834439548
0.010166323338673955
0.008869306
-0.004482338
-0.003871977
0.007267109
0.006275273
0.013447013046463674
0.000782025
0.007801175
0.006198978
0.012149996185244483
0.011692225528343592
0.021152819
0.009555962
-0.000591287
0.007343404
-0.000514992
0.010090028229190473
0.017795834
0.005436027
0.00413901
0.005130846
0.007801175
0.011539635309376628
0.010318913557640919
0.016346227206835984
0.006122683
0.000782025
-0.006389715
-0.000209812
-0.001888304
0.017261768520637766
0.012302586404211446
0.010852979324025291
0.006809339
-0.002346075
0.008945602
0.015201800564583756
0.011768520637827073
0.003681239
0.010700389105058328
-0.003032731
-0.001812009
0.002841993
0.020160982681010076
0.020313573
0.020389868
0.013218127718013228
0.003299763
-0.002803845
0.000247959
0.005664912
0.017338063630121248
0.008106355
0.006351568
0.003452354
0.005436027
0.010166323338673955
0.015583276112001165
0.010242618448157437
0.003223468
0.001087205
-0.000362402
0.000629435
0.009250782
0.014896620126649829
0.015354391
0.005741207
0.005130846
-0.000133516
0.000400549
0.009708553
0.010395209
0.010166323338673955
0.005054551
0.005359731
-0.002498665
-0.000514992
0.024814984359502468
0.011921110856794037
0.009708553
-0.001735714
-0.002498665
-0.001201648
0.007648585
0.012684061951628856
0.008335241
0.013065537499046265
-5.72E-05
0.002460517
0.007839322
0.012188143739986224
0.014629587243457642
-0.000400549
0.002803845
0.001888304
-0.002079042
-0.000171664
0.011730373083085333
0.006694896
0.018215457
0.010891126878767032
-0.002613107
0.004863813
0.004634928
0.004024567
0.007839322
-0.007190814
-0.002460517
-0.002689403
0.00989929
0.021419851987487526
0.022945754177157163
0.006542306
-0.003070878
-0.005054551
-0.002155337
-0.006656748
0.003490501
0.02035172
0.00585565
0.00585565
-0.001773861
0.002117189
-0.007267109
0.003185321
0.00944152
0.002651255
-0.006885634
-0.00787747
-0.004749371
0.000133516
0.007228962
0.00600824
-0.003833829
-0.008106355
-0.00413901
0.00600824
-0.007267109
0.006466011
0.008144503
-0.003910124
-0.008335241
0.008525978
0.016765850308995134
0.011425192645151405
-0.00055314
0.00959411
0.008525978
-0.00055314
0.00600824
0.012188143739986224
0.0128748
0.011425192645151405
0.004100862
0.005397879
0.01989395
0.028210117
0.016994736
0.012951094834821042
-0.009098192
-0.002689403
0.002346075
0.012798504615854078
0.020733196
0.024395361257343318
0.024090181
0.011425192645151405
0.006923781
0.004100862
0.007076371
0.005474174
0.017986572060730843
0.009975586
0.00631342
0.015239948119325497
0.018368047608148252
0.019512474
0.013942931258106306
0.010662241550316587
0.013637750820172378
0.008907454
-0.000476844
0.017605096513313434
0.014171816586556751
0.007915618
0.011425192645151405
0.013942931258106306
0.010509651331349623
0.006923781
0.011692225528343592
0.018558785381856957
0.014057373922331529
0.005512322
0.000476844
-0.002956435
0.004825666
0.011768520637827073
0.012531471732661892
0.016498817425802947
0.006809339
-0.003337911
0.000324254
0.011310749980926182
0.013141832608529747
0.011921110856794037
0.004901961
-0.00242237
0.000171664
0.006961929
0.001468681
0.019321736476691775
0.016422522316319466
0.005512322
-0.000209812
0.005054551
0.00444419
0.017643244068055175
0.017109178301670802
0.015506981002517684
0.005054551
-0.003948272
0.002765698
0.003910124
0.012226291294727964
0.018406195162889993
0.016422522316319466
0.006198978
0.010090028229190473
0.0042916
-0.001049058
0.000324254
0.008640421
0.006275273
0.009708553
0.000629435
0.006885634
0.009479667
0.00803006
0.006885634
0.000782025
0.000400549
-0.004482338
0.008411536
0.010471503776607882
0.019932097
0.005054551
0.007801175
0.000934615
0.00070573
0.00757229
0.00757229
0.013370717936980192
0.009021897
0.010013733119706991
0.001926452
0.000629435
0.006504158
0.013981078812848047
0.011387045090409664
0.006351568
0.002841993
0.002307927
0.011081864652475737
0.012378881513694928
-0.002040894
0.0042916
-0.00242237
0.005741207
0.003223468
0.009174487
0.012302586404211446
0.017948424505989102
0.001239796
1.907377737087046e-05
0.000324254
0.002765698
0.007190814
0.012531471732661892
0.009708553
0.005588617
-0.001354238
0.007114519
0.006427863
0.016880292973220357
0.013523308155947156
0.014591439688715901
0.010013733119706991
0.005359731
-0.007610437
-0.003261616
0.014972915
0.022144655527580603
0.012531471732661892
0.006427863
0.006122683
0.001850156
0.010013733119706991
0.015201800564583756
0.010929274433508773
0.006427863
-0.001201648
-0.004024567
0.007190814
0.011005569542992255
0.017261768520637766
0.022526131074998013
0.002079042
-0.010509651
-0.006237125
-0.000591287
0.011768520637827073
0.028858625162127005
0.010013733119706991
-0.000362402
-0.007228962
-0.001964599
0.001316091
0.011692225528343592
0.015430685893034202
0.009708553
-0.003566796
0.005207141
0.003681239
0.008945602
0.016117341878385538
0.016346227206835984
0.00444419
0.000400549
-0.001125353
0.006809339
0.020237277790493557
0.011234455
0.008716716
0.009098192
0.003833829
0.013599603265430638
0.01161593
0.008869306
0.00757229
0.00772488
0.010547798886091364
0.006733043
0.003757534
0.005970092
0.010395209
0.007953765
0.004215305
0.003070878
0.00444419
0.006733043
0.014057373922331529
0.015735866
0.007038224
0.007419699
-0.008373388
-0.004558633
0.00055314
0.015812161
0.015430685893034202
0.004062715
0.003604944
-0.000438697
0.009784848
0.020618753337910967
0.015430685893034202
-0.007152667
-0.002803845
-0.001277943
-0.002346075
0.007648585
0.021763179980163194
0.017414359
0.008716716
-0.005931945
-0.008449683
0.006122683
0.0042916
0.012989242389562783
0.018253605
0.015812161
0.001468681
-0.007228962
0.002384222
0.00413901
0.017872129
0.014515145
0.010929274433508773
0.006885634
0.002994583
0.013103685053788006
0.020656900892652708
0.015087357900358533
0.010280766002899178
0.000896468
-0.005054551
0.011882963302052296
0.030041199359120974
0.027218280308232146
0.007610437
-0.001316091
0.001277943
0.005245289
0.013561455710688897
0.017986572060730843
0.022335393301289308
0.010585946440833105
-0.006656748
-0.003376059
0.002956435
0.010509651331349623
0.007991913
0.007000076
0.003643091
-0.003528649
-0.001316091
0.001735714
0.014019226367589788
0.005321584
-0.001087205
-0.003681239
-0.006809339
0.002193484
0.003414206
0.001277943
0.003490501
0.006847486
0.001964599
0.001812009
0.003643091
0.005397879
0.011120012207217478
0.015087357900358533
0.000591287
-0.007648585
-0.002841993
0.004100862
0.012188143739986224
0.014629587243457642
0.021953918
0.013179980163271487
-9.54E-05
0.003414206
0.00616083
0.004863813
0.010585946440833105
0.00989929
0.00989929
0.007686732
0.014858472571908088
0.014095521
0.009517815
0.007915618
0.003948272
0.000820172
0.000591287
0.014019226367589788
0.018368047608148252
0.017376211
0.014019226367589788
-0.004520485
-0.004825666
-0.004520485
0.011654078
0.015087357900358533
0.019207293812466553
0.013408865491721933
0.002193484
-0.000247959
0.001964599
0.005779355
0.010662241550316587
0.013485160601205415
0.007763027
0.00272755
0.004177157
0.009670405
0.015697718776226388
0.011654078
0.006618601
0.004711223
-0.002918288
-0.002460517
0.007991913
0.010814832
0.014705882352941124
0.009975586
0.005016403
-0.000782025
0.00288014
0.002536812
0.007190814
0.015354391
0.010852979324025291
0.007648585
0.002002747
0.008411536
0.012760357061112337
0.013141832608529747
0.013904783703364565
0.014591439688715901
0.008640421
-0.003185321
0.006198978
0.015506981002517684
0.021152819
0.014667734798199383
0.015125505455100274
0.009784848
0.006580453
0.009555962
0.011844815747310555
0.013981078812848047
0.010547798886091364
0.020542458228427485
0.007495995
0.007801175
0.004825666
0.017338063630121248
0.020466163118944003
0.012760357061112337
0.003223468
-0.004863813
0.010700389105058328
0.012836652
0.01863508
0.015735866
0.008869306
0.002231632
-0.002346075
0.006504158
0.016193637
0.021152819
0.012607766842145374
0.010776684
0.005817502
0.013523308155947156
0.019321736476691775
0.025806821
0.029697871366445305
0.027637903410391296
0.026188296
0.024662394140535504
0.030918593
0.031071183337147982
0.040226596475166174
0.03938735
0.037403677
0.039158465
0.041981384
0.046635386
0.049916075
0.051060502
0.041828793774319285
0.028782330052643523
0.015888456549935093
0.024433509
0.028782330052643523
0.030003051804379233
0.028248264
0.027561608300907814
0.011768520637827073
-0.0097467
-0.014095521
-0.030041199
-0.040417334
-0.053540093
-0.048733501
-0.041180285
-0.0440795
-0.048504616
-0.064526589
-0.071316854
-0.073071641
-0.075055314
-0.06559472
-0.069867247
-0.070859083
-0.062466621
-0.048352026
-0.038128481
-0.026455329
-0.018368048
-0.000667582
0.004978256
0.012836652
0.012607766842145374
0.022373541
0.028553444724193078
0.036640726
0.042858778
0.055828946
0.060101472495613185
0.050259403
0.045834287
0.043926909285115036
0.053158618
0.057202258
0.058041504539559176
0.053158618
0.042401007
0.026913099870298218
0.013485160601205415
0.023479819943541536
0.023556115053025017
0.030880445563439277
0.023556115053025017
0.016002899214160315
0.007763027
-0.000629435
0.004787518
0.006237125
0.011425192645151405
0.005321584
0.004177157
-0.001773861
-0.000400549
-1.91E-05
0.003795682
0.003109026
-0.004825666
-0.000934615
0.002040894
0.004787518
0.002803845
0.008144503
0.001277943
-0.001239796
-0.008564126
-0.00818265
0.006542306
0.008220798
0.013332570382238451
0.002040894
-0.004062715
-0.008716716
0.001583124
0.008831159
0.014629587243457642
0.009975586
-0.00101091
-0.004367895
-0.004215305
0.008373388
0.0097467
0.013561455710688897
0.008907454
0.004100862
-9.54E-05
0.000514992
0.00989929
0.012722209506370596
0.011730373083085333
0.004940108
0.000438697
-0.003147173
0.005321584
0.006847486
0.008144503
0.007686732
0.002651255
-0.002613107
-0.000171664
0.015163653009842015
0.010891126878767032
0.00272755
-0.010700389
-0.006809339
-0.001926452
-9.54E-05
0.011348897535667923
0.007686732
0.010280766002899178
0.00288014
0.000972763
-0.011387045
-0.002918288
0.00616083
0.00631342
0.007839322
0.007686732
0.005321584
-0.007038224
0.005092699
0.009670405
0.014171816586556751
0.002956435
0.000133516
-0.00085832
0.000591287
0.010547798886091364
0.018177309834439548
0.020008392462043112
0.001926452
-0.000209812
-5.72E-05
0.004978256
0.013828488593881083
0.014972915
0.011387045090409664
0.000171664
0.002689403
0.003833829
0.011539635309376628
0.012760357061112337
0.014972915
0.007267109
0.002765698
-0.001430533
0.001468681
0.010852979324025291
0.015201800564583756
0.017566948958571693
0.010090028229190473
0.007038224
0.004367895
0.003147173
0.003376059
0.017414359
0.017948424505989102
0.00787747
0.005054551
0.000324254
0.01161593
0.012836652
0.013065537499046265
0.008716716
0.007038224
0.005130846
0.004673075
0.010852979324025291
0.014133669
0.017338063630121248
0.002689403
0.0011635
-0.006847486
0.004367895
0.010929274433508773
0.010013733119706991
0.014591439688715901
0.007343404
0.002460517
-0.001888304
0.003070878
0.002918288
0.014515145
0.008411536
0.007190814
0.005283436
-0.002651255
0.002307927
0.010013733119706991
0.021534295
0.009937438
0.004215305
0.000782025
0.009327077
0.009555962
0.016041046768902056
0.008640421
0.004673075
0.005664912
1.907377737087046e-05
0.006427863
0.009479667
0.015583276112001165
0.006733043
-0.000133516
-0.001812009
-0.001125353
0.014515145
0.011844815747310555
0.007038224
-0.003032731
-0.001888304
-0.006847486
0.001392386
0.013447013046463674
0.013904783703364565
0.010700389105058328
-0.000209812
-0.004711223
-0.004482338
0.007343404
0.011844815747310555
0.005893797
0.001468681
-0.001506828
0.001087205
0.001468681
0.007839322
0.0128748
0.011654078
-0.011234455
-0.007648585
-0.005893797
0.000362402
0.005321584
0.008678569
0.008602274
0.003719387
-0.002765698
-0.009021897
0.000209812
0.003261616
0.006466011
0.003414206
-0.001316091
-0.002079042
-0.002079042
0.005474174
0.010204470893415696
0.011577782864118369
0.00288014
-0.002841993
-0.003528649
0.005626764
0.012569619287403633
0.014019226367589788
0.009212634
0.007381552
0.006694896
0.003185321
0.009670405
0.010967421988250514
0.022030213
0.012798504615854078
0.010814832
0.013408865491721933
0.007686732
0.013561455710688897
0.016689555199511652
0.024700541695277245
0.011501487754634887
0.009365225
0.002117189
0.0128748
0.014171816586556751
0.018673228
0.018673228
0.011196307
0.005703059
0.001430533
0.00989929
0.013332570382238451
0.017681391622796916
0.0097467
0.004711223
0.00226978
0.000514992
0.008525978
0.016002899214160315
0.017681391622796916
0.006847486
0.00616083
0.003414206
0.00585565
0.008678569
0.014782177462424606
0.011348897535667923
0.004940108
0.007305257
0.006923781
0.012951094834821042
0.007763027
0.014782177462424606
0.008602274
0.002346075
0.004177157
0.00257496
0.010051880674448732
0.011196307
0.017299916075379507
0.010662241550316587
-0.000934615
-0.006885634
5.722133211261138e-05
0.012951094834821042
0.011654078
0.012722209506370596
0.001354238
-0.000934615
0.000591287
0.012722209506370596
0.006847486
0.012264438849469705
0.005779355
0.001659419
0.000286107
0.003566796
0.005970092
0.014667734798199383
0.015888456549935093
0.006656748
0.003681239
-0.004177157
0.008640421
0.013370717936980192
0.012989242389562783
0.010547798886091364
0.010318913557640919
-0.000286107
-0.001277943
0.012760357061112337
0.016727702754253393
0.014438849469748938
0.008335241
0.005436027
0.001621271
0.001239796
0.010776684
0.017566948958571693
0.016117341878385538
0.005893797
0.002155337
-0.00257496
0.003910124
0.011997405966277519
0.013675898
0.010624093995574846
0.006046387
0.001621271
-0.004253452
0.005970092
0.003604944
0.014438849469748938
0.009403372
0.00772488
-0.000820172
0.000171664
0.006351568
0.008487831
0.013141832608529747
0.002765698
0.004749371
0.001850156
0.008716716
0.008640421
0.011768520637827073
0.011463340199893146
0.002536812
0.001392386
0.000247959
0.011921110856794037
0.011387045090409664
0.018253605
0.005741207
0.002689403
-0.003566796
-0.000438697
0.010090028229190473
0.018711376
0.019855802
0.003147173
-0.000209812
-0.006084535
0.004901961
0.009021897
0.012912947280079301
0.012302586404211446
0.010547798886091364
0.003452354
-0.002346075
0.008106355
0.008640421
0.010166323338673955
0.005359731
0.000247959
-0.000896468
0.002765698
0.00818265
0.009937438
0.008564126
0.005741207
0.002155337
-0.001430533
0.003223468
0.007648585
0.008640421
0.006580453
1.907377737087046e-05
0.001850156
0.002231632
0.012836652
0.015049210345616792
0.016575113
0.008945602
0.002841993
0.003681239
0.004520485
0.00787747
0.014667734798199383
0.018940260929274366
0.00787747
0.00413901
0.003986419
0.008716716
0.009098192
0.011768520637827073
0.012378881513694928
0.009327077
-0.000591287
-0.002117189
0.013523308155947156
0.010395209
0.014057373922331529
0.002689403
0.001468681
-0.000743877
0.003986419
0.009174487
0.014133669
0.0183299
0.006733043
0.002994583
-0.008831159
0.002536812
0.015430685893034202
0.018253605
0.012607766842145374
0.004062715
-0.000667582
-0.001888304
0.009555962
0.013447013046463674
0.016346227206835984
0.007190814
0.003910124
-0.001277943
0.00413901
0.010852979324025291
0.012073701
0.014209964141298492
0.003299763
0.003223468
-0.004329747
0.006351568
0.015049210345616792
0.012760357061112337
0.009861143
0.002384222
0.003070878
0.006427863
0.003299763
0.004825666
0.013523308155947156
0.011081864652475737
0.005588617
-0.004634928
-0.003261616
0.010166323338673955
0.014438849469748938
0.016269932097352502
0.001697566
0.004367895
-0.003795682
0.003833829
0.009479667
0.009937438
0.013141832608529747
0.002841993
0.000400549
-0.000743877
0.012073701
0.013904783703364565
0.0183299
0.004520485
-0.002193484
-0.003719387
0.004215305
0.006351568
0.015201800564583756
0.020313573
0.015049210345616792
0.001392386
-0.007610437
0.002689403
0.007038224
0.013294423
0.014820325017166347
0.009937438
0.006885634
0.003910124
0.011387045090409664
0.009250782
0.011081864652475737
0.005893797
0.005512322
0.004520485
0.009327077
0.015697718776226388
0.021038376440070117
0.011501487754634887
-0.000247959
0.003490501
0.003261616
0.005321584
0.011272602426184442
0.015850308995193352
0.012493324177920151
0.004634928
0.003719387
-0.000247959
0.005168994
0.00944152
0.011272602426184442
0.005703059
0.000667582
-0.00444419
0.000667582
0.007991913
0.013179980163271487
0.0097467
-0.000476844
0.000362402
-0.007038224
0.006466011
0.009670405
0.010357061
0.001812009
0.002803845
-0.000324254
0.001430533
0.008602274
0.009517815
0.014019226367589788
0.002803845
-0.000324254
0.000514992
0.003490501
0.011425192645151405
0.017376211
0.017071031
0.001430533
0.000209812
0.001277943
0.009517815
0.012111848630502742
0.014400701915007197
0.011348897535667923
0.004787518
0.001583124
0.006084535
0.016384374761577725
0.016994736
0.017452506
0.005626764
-0.00459678
-0.001544976
0.008068208
0.012645914396887115
0.017605096513313434
0.016536965
0.007610437
0.005245289
-0.002918288
0.001354238
0.012340733958953187
0.016994736
0.006389715
-0.003299763
0.006847486
0.010891126878767032
0.007076371
0.006618601
0.009822995
0.002117189
0.00631342
0.004863813
0.005550469
0.011043717097733996
0.013408865491721933
0.011806668192568814
0.002040894
0.001735714
-0.002460517
0.010204470893415696
0.017071031
0.017757686732280398
0.011806668192568814
5.722133211261138e-05
0.000362402
-0.002384222
0.010509651331349623
0.016308079652094243
0.018825818265049143
0.009060044
-0.0011635
-0.00055314
-0.00070573
0.011882963302052296
0.014858472571908088
0.014782177462424606
0.004024567
0.002803845
0.003948272
0.012569619287403633
0.000209812
0.007381552
0.015392538338292459
0.014171816586556751
0.003185321
-0.003833829
0.005703059
0.013866636148622824
0.020656900892652708
0.005168994
0.005779355
0.003871977
-9.54E-05
0.009060044
0.016231785
0.017147325856412543
0.006618601
-0.001087205
-1.91E-05
0.012340733958953187
0.014476997024490679
0.01661326
0.004787518
0.000209812
0.003643091
0.00600824
0.016308079652094243
0.019436179140916998
0.017910277
0.010585946440833105
0.011577782864118369
0.011882963302052296
0.015392538338292459
0.023708705
0.030804150453955792
0.034618905928129884
0.035534447241931666
0.034161135
0.022030213
0.031795986877241056
0.041180285
0.044918746
0.053845273517967675
0.042629892423895845
0.035458152132448184
0.039654383
0.056210422
0.048199435
0.042401007
0.034847791
0.024471656
0.016918440527962098
0.027370871
0.032940414
0.035458152132448184
0.020122835126268335
-0.005436027
-0.015354391
-0.039921416
-0.062199588
-0.062275883
-0.046559091
-0.039921416
-0.046330205
-0.05655375
-0.078297856
-0.079823758
-0.070363165
-0.079289693
-0.081731136
-0.112478065
-0.092793927
-0.075780117
-0.058308537
-0.034809644
-0.017872129
-0.023594263
-0.014515145
-0.008487831
0.001277943
0.008449683
0.019970245
0.024166475928892872
0.030498970016021865
0.040951400015259244
0.051785306
0.06544213
0.067959869
0.067502098
0.061398489356832384
0.059491112
0.057965209430075694
0.051937896
0.051823453
0.046787975890745605
0.043507286182955886
0.029774166475928787
0.021229114
0.028782330052643523
0.041828793774319285
0.016117341878385538
0.012455177
0.023289082
0.013828488593881083
0.008869306
0.003910124
0.00787747
0.00757229
0.010471503776607882
0.0042916
-0.001277943
-0.000667582
0.00459678
0.00787747
0.009632258
0.010471503776607882
0.003681239
0.00444419
0.000324254
-0.001506828
-0.005703059
0.018558785381856957
0.020008392462043112
0.003070878
9.53688868543523e-05
0.004825666
0.012989242389562783
0.00459678
0.008716716
0.007038224
0.005207141
0.004901961
0.004062715
0.013828488593881083
0.009250782
0.008945602
-0.004634928
0.005817502
0.003910124
0.010395209
0.013675898
0.011997405966277519
-5.72E-05
0.000247959
0.006427863
0.003223468
0.003452354
0.009784848
0.008945602
0.00803006
0.00787747
0.002994583
-0.003643091
0.00413901
0.003910124
0.011921110856794037
0.003528649
0.000247959
0.001773861
0.007190814
0.005817502
0.007801175
0.001544976
0.005970092
0.0011635
-0.003795682
0.009861143
0.006275273
0.007495995
0.000171664
0.008487831
0.008945602
0.00459678
0.001926452
0.008640421
0.005817502
0.003604944
0.006198978
0.001316091
0.009403372
0.009021897
0.011463340199893146
0.015201800564583756
0.001544976
-0.004253452
-0.00257496
0.004978256
0.013828488593881083
0.024357213702601577
0.015812161
-0.00257496
-0.005931945
-0.001277943
0.013828488593881083
0.015201800564583756
0.012455177
0.004062715
0.005359731
0.004215305
0.00818265
0.010318913557640919
0.013752193484397601
0.016498817425802947
-0.003795682
0.001926452
0.007495995
0.012149996185244483
0.012531471732661892
0.012455177
0.00459678
-0.000133516
0.003986419
0.005664912
0.016498817425802947
0.022449836
0.007190814
0.001468681
0.007038224
0.005359731
0.004673075
0.008793011
0.014438849469748938
0.016193637
0.006504158
-0.000438697
0.002307927
0.009555962
0.015735866
0.015125505455100274
0.008869306
0.008564126
0.001544976
0.000247959
0.010929274433508773
0.015812161
0.012989242389562783
0.001850156
0.001544976
0.004749371
0.016575113
0.010852979324025291
0.010090028229190473
0.007648585
0.00413901
0.001544976
0.002689403
0.010471503776607882
0.011768520637827073
0.012836652
0.005054551
0.001392386
-0.002117189
-0.001201648
0.010852979324025291
0.016269932097352502
0.014438849469748938
0.003681239
-0.004406043
-0.005092699
0.006427863
0.011081864652475737
0.00818265
0.002079042
0.005588617
-0.003490501
0.005741207
0.010929274433508773
0.008564126
0.013294423
0.002079042
-0.00257496
-0.001277943
-0.000591287
0.005970092
0.015430685893034202
0.015201800564583756
0.005970092
0.00085832
-0.00989929
-0.000743877
0.009250782
0.011997405966277519
0.007953765
-0.002193484
-0.00585565
-0.001125353
0.003986419
0.003833829
0.002231632
-0.002117189
-0.001964599
-0.003948272
-0.001354238
0.00272755
0.001506828
-0.00085832
-0.003986419
-0.002079042
-0.000476844
0.000896468
0.003566796
0.003185321
0.006618601
0.007381552
-0.008106355
-0.000171664
0.013637750820172378
0.012111848630502742
0.012340733958953187
0.005703059
0.008602274
0.004711223
0.005016403
0.014705882352941124
0.019588769359883962
0.014019226367589788
5.722133211261138e-05
0.00272755
0.007686732
0.018902113374532625
0.011501487754634887
0.018902113374532625
0.012798504615854078
0.008373388
0.003871977
0.004634928
0.007457847
0.015926604104676834
0.016765850308995134
0.007305257
0.011425192645151405
0.005550469
0.006084535
0.013714046
0.016994736
0.015239948119325497
0.007000076
0.007686732
0.00616083
0.011120012207217478
0.014248111696040233
0.014858472571908088
0.018368047608148252
0.012188143739986224
0.003032731
5.722133211261138e-05
0.012340733958953187
0.017299916075379507
0.013942931258106306
0.006847486
0.006771191
0.007000076
0.006847486
0.013866636148622824
0.009136339
0.001506828
0.002651255
0.003643091
0.003185321
0.009975586
0.007610437
0.00989929
0.007991913
0.002651255
-0.002918288
0.001506828
0.007839322
0.014095521
0.015316243228808977
0.00288014
-0.00413901
0.007076371
0.000820172
0.006694896
0.014400701915007197
0.013637750820172378
0.007534142
0.001888304
0.004940108
0.00585565
0.007305257
0.008602274
0.007839322
0.005703059
0.005245289
0.005931945
0.010662241550316587
0.015011062790875052
0.014171816586556751
0.003337911
0.001583124
0.000133516
0.005550469
0.013294423
0.013904783703364565
0.013523308155947156
0.011539635309376628
0.003986419
0.003757534
0.015735866
0.011005569542992255
-0.002651255
0.004367895
0.012302586404211446
0.008640421
0.006351568
0.002384222
0.014286259250781974
0.010700389105058328
0.008411536
0.003299763
0.00459678
-0.002040894
0.003299763
0.011234455
0.010242618448157437
0.003604944
0.004215305
0.001392386
0.006046387
0.013904783703364565
0.010852979324025291
0.008487831
-0.001125353
-0.001583124
0.000324254
0.007648585
0.013370717936980192
0.019016556038757848
0.002689403
-0.000591287
0.001316091
0.002994583
0.008487831
0.014667734798199383
0.014591439688715901
0.005207141
-0.004253452
-0.000514992
0.006809339
0.009632258
0.012226291294727964
0.009403372
0.003070878
0.003757534
0.008258946
0.011081864652475737
0.011234455
0.009784848
0.005436027
0.001468681
-0.001354238
0.002536812
0.013904783703364565
0.017566948958571693
0.011921110856794037
0.004978256
0.0011635
-0.001049058
0.008106355
0.009174487
0.009861143
0.005741207
-0.000133516
-0.003414206
0.001544976
0.011768520637827073
0.014438849469748938
0.008564126
0.006351568
0.002613107
-0.004329747
0.002841993
0.010166323338673955
0.011997405966277519
0.007648585
0.005054551
-0.000972763
0.005130846
0.015201800564583756
0.014896620126649829
0.013218127718013228
0.004825666
0.001316091
-0.001506828
0.0042916
0.009555962
0.0183299
0.019703212024109185
0.007419699
0.00055314
0.002155337
0.0042916
0.009822995
0.012264438849469705
0.010967421988250514
0.003185321
-0.002918288
0.003566796
0.009365225
0.016002899214160315
0.016536965
0.008907454
0.000896468
-0.00085832
-0.002002747
0.004253452
0.011196307
0.011882963302052296
0.004100862
0.001277943
0.001812009
0.013561455710688897
0.017605096513313434
0.011654078
0.005703059
-0.009632258
-0.006046387
0.004024567
0.013408865491721933
0.015316243228808977
0.013027389944304524
0.008678569
0.003337911
0.001659419
0.005550469
0.013179980163271487
0.012722209506370596
0.010051880674448732
0.007228962
0.003719387
0.003643091
0.003795682
0.013332570382238451
0.018215457
0.011959258411535778
0.007381552
0.000820172
0.005397879
0.010433356221866141
0.005321584
0.012340733958953187
0.006618601
0.003414206
0.003337911
0.005779355
0.002803845
0.00928893
0.010814832
0.004863813
0.005550469
-0.00101091
0.001506828
0.007534142
0.013942931258106306
0.009212634
0.00257496
-0.000324254
0.004100862
0.00989929
0.015011062790875052
0.018673228
0.010738536659800069
0.001659419
-0.003070878
0.005779355
0.016689555199511652
0.017986572060730843
0.013408865491721933
0.007839322
0.005703059
0.008754864
0.010128175783932214
0.011425192645151405
0.014019226367589788
0.008831159
0.003566796
0.00272755
0.002651255
0.012188143739986224
0.011272602426184442
0.009136339
0.005550469
0.00257496
-0.002536812
0.001735714
0.00600824
0.010433356221866141
0.005245289
0.000743877
0.000133516
5.722133211261138e-05
0.002346075
0.00272755
0.005397879
0.005168994
-0.002994583
0.000286107
0.004024567
0.003795682
0.00959411
0.0097467
0.008297093
-0.002613107
-0.00459678
0.003032731
0.008373388
0.015468833447775941
0.009975586
0.002803845
0.008297093
0.000820172
0.005168994
0.011272602426184442
0.017071031
0.009822995
0.003414206
0.001049058
0.00226978
0.013103685053788006
0.014400701915007197
0.015087357900358533
0.010814832
0.003566796
0.000286107
0.006618601
0.012417029068436669
0.014553292
0.012264438849469705
0.006847486
0.001583124
0.003337911
0.00631342
0.009670405
0.018368047608148252
0.010814832
0.006847486
0.00226978
-0.002994583
0.001049058
0.006542306
0.011959258411535778
0.011043717097733996
0.00585565
0.005703059
0.011120012207217478
0.011272602426184442
0.012188143739986224
0.018596932936598698
-0.000324254
-0.004901961
-0.000476844
0.006771191
0.015316243228808977
0.021343556878004044
0.017452506
0.005626764
0.00616083
0.012493324177920151
0.018291752
0.013561455710688897
0.004329747
-0.002994583
-0.001773861
-0.003376059
0.007763027
0.020428015564202262
0.021038376440070117
0.024547951
0.010357061
-0.002384222
-0.003528649
-0.003604944
0.00226978
0.004634928
0.007534142
0.0128748
0.013179980163271487
0.008449683
0.008831159
0.003871977
0.001583124
0.006389715
0.000667582
-0.002765698
0.005016403
0.007534142
0.009822995
0.00585565
0.003948272
0.002498665
0.001049058
0.00600824
0.006961929
0.009403372
0.000400549
0.002536812
-0.001354238
0.005664912
0.019321736476691775
0.017185473411154284
0.015812161
0.006275273
0.001468681
0.008945602
0.026493476768139068
0.032444495
0.027714198519874778
0.024052033
0.025883115892271213
0.029240100709544414
0.025272755
0.024662394140535504
0.035725185
0.044956893
0.043659876
0.041599908
0.038548104
0.041828793774319285
0.051518273
0.048619058518349176
0.029850462
0.019779507133592666
0.021305409323262303
0.023670558
0.032825971
0.035114824139772516
0.037022202
0.041523613
0.017566948958571693
-0.013408865
-0.03065156
-0.053768978
-0.059491112
-0.043240253
-0.038204776
-0.047436484
-0.050793469
-0.057965209
-0.068188754
-0.068265049
-0.067807279
-0.08634699
-0.100537881
-0.123731594
-0.085507744
-0.075970855
-0.052929732
-0.036068513
-0.021419852
-0.013714046
-0.012035554
-0.007305257
-0.00242237
0.000782025
0.012607766842145374
0.024738689250018986
0.027256427862973887
0.043507286182955886
0.060978866
0.069295033
0.070820935
0.061284046692607154
0.054951553
0.054112306
0.057087816
0.057392996
0.054036011291676386
0.042133974
0.028858625162127005
0.028248264
0.030231937132829678
0.029545281
0.028171969
0.029392690928511378
0.018482490272373475
0.012302586404211446
0.004520485
0.008564126
0.012455177
0.007953765
0.00757229
0.010624093995574846
0.005588617
-0.001049058
0.013141832608529747
0.008487831
0.011844815747310555
0.007419699
0.003452354
0.002155337
0.002918288
0.006580453
0.012722209506370596
0.013332570382238451
0.003261616
0.003948272
-0.001926452
0.008678569
0.012645914396887115
0.007686732
0.00989929
0.008754864
-0.001239796
-0.007419699
0.004329747
0.012722209506370596
0.014553292
0.012645914396887115
0.004482338
0.000667582
0.005550469
0.010051880674448732
0.010891126878767032
0.010967421988250514
0.008297093
0.004787518
-0.003376059
0.005474174
0.017299916075379507
0.019054704
0.012798504615854078
0.008754864
-0.002002747
-0.002002747
0.011730373083085333
0.013942931258106306
0.015621423666742905
0.008220798
0.00600824
0.001201648
0.000743877
0.008831159
0.014095521
0.015011062790875052
0.0097467
0.000591287
-0.00055314
0.002498665
0.008831159
0.016079194323643797
0.011501487754634887
0.005245289
-0.000934615
-0.002765698
0.004024567
0.009060044
0.009060044
0.008983749
0.000209812
-0.001850156
0.003185321
0.012111848630502742
0.011959258411535778
0.009212634
0.001964599
0.000667582
-0.006961929
-0.002460517
0.012188143739986224
0.018444342717631734
0.013332570382238451
0.008525978
0.004787518
0.001354238
0.00585565
0.008754864
0.012493324177920151
0.007076371
0.001964599
0.000362402
0.004253452
0.008373388
0.017071031
0.017757686732280398
0.008754864
0.006618601
-0.002231632
-0.001239796
0.007381552
0.013942931258106306
0.010509651331349623
0.004940108
0.010051880674448732
0.008525978
0.009670405
0.011806668192568814
0.00944152
0.005092699
0.002498665
0.00226978
0.001430533
0.010967421988250514
0.027409018
0.028171969
0.004978256
-0.004177157
-0.008068208
0.003147173
0.010318913557640919
0.014286259250781974
0.019703212024109185
0.01161593
0.010547798886091364
0.00757229
0.008106355
0.004062715
0.008793011
0.003910124
0.004673075
0.005741207
0.006427863
0.013218127718013228
0.014591439688715901
0.015964751659418575
0.003452354
0.002155337
-0.001583124
0.010395209
0.010471503776607882
0.011005569542992255
0.012760357061112337
0.002994583
0.00070573
0.000782025
0.009937438
0.011844815747310555
0.015354391
0.008487831
0.001850156
0.002079042
-0.001201648
0.001926452
0.010624093995574846
0.016651408
0.007267109
0.004825666
-0.003032731
0.002079042
0.005893797
0.00787747
0.007648585
0.007267109
-0.000820172
-0.003719387
0.011234455
0.010624093995574846
0.010166323338673955
0.007419699
-0.00288014
0.000324254
-0.000362402
0.001468681
0.006351568
0.011310749980926182
0.009632258
0.005893797
-0.003871977
-0.00272755
0.002307927
0.013981078812848047
0.007495995
-0.003109026
-0.006237125
-0.005779355
0.002536812
0.005893797
0.010852979324025291
0.008945602
-0.001430533
-0.003795682
-0.002498665
0.000247959
0.0011635
0.002994583
0.001544976
0.002307927
0.001544976
0.002918288
0.006885634
0.011692225528343592
0.005893797
0.001316091
0.001087205
-0.004940108
0.00444419
0.014972915
0.020771344
0.016803997863736875
0.008716716
0.003223468
0.005664912
0.010471503776607882
0.011463340199893146
0.019169146
0.009479667
0.009784848
0.00444419
0.017643244068055175
0.019321736476691775
0.0183299
0.018940260929274366
0.010700389105058328
0.005130846
0.001621271
0.009174487
0.016269932097352502
0.020771344
0.015506981002517684
0.017261768520637766
0.008793011
0.001544976
0.008258946
0.017185473411154284
0.013141832608529747
0.004978256
-0.000362402
0.001544976
0.014438849469748938
0.014209964141298492
0.015735866
0.012378881513694928
0.013141832608529747
0.001773861
-0.001735714
0.00818265
0.010242618448157437
0.014591439688715901
0.011692225528343592
0.011158159761959219
0.009250782
0.004062715
0.010776684
0.013981078812848047
0.021229114
0.008869306
0.002841993
-0.003185321
-0.000896468
0.008869306
0.013141832608529747
0.015049210345616792
0.011768520637827073
0.00757229
0.000629435
0.009555962
0.009250782
0.002155337
-0.001888304
-0.003032731
-0.001583124
0.006961929
0.016269932097352502
0.014896620126649829
0.012149996185244483
0.000171664
-0.007000076
-0.006084535
0.002536812
0.009250782
0.00803006
0.00413901
0.000476844
0.006198978
0.002536812
0.008258946
0.007038224
0.006427863
0.00413901
0.002536812
0.001392386
0.005130846
0.003528649
0.008335241
0.015354391
0.008335241
0.009784848
0.002384222
0.002689403
0.005741207
0.01161593
0.014515145
0.00757229
0.0011635
-0.001506828
0.009021897
0.005664912
0.010929274433508773
0.003376059
0.0011635
0.010013733119706991
0.009784848
0.002002747
0.006122683
0.012684061951628856
0.002689403
-0.001506828
-0.006237125
0.005512322
0.011234455
0.017414359
0.022526131074998013
0.009098192
0.002231632
-0.003566796
0.006809339
0.009708553
0.013752193484397601
0.003299763
0.003757534
0.006275273
0.010395209
0.013065537499046265
0.012149996185244483
0.015354391
0.007114519
0.004901961
-0.006237125
-0.00226978
0.003681239
0.008564126
0.013370717936980192
0.006961929
0.003604944
0.004367895
0.012226291294727964
0.005741207
0.009098192
0.002765698
-0.000591287
0.000782025
0.005054551
0.009174487
0.011234455
0.017032883
0.007953765
0.008106355
0.001544976
0.007648585
0.012149996185244483
0.012760357061112337
0.012455177
0.004520485
-0.005550469
-0.001201648
0.011005569542992255
0.015735866
0.016956588
0.013294423
0.006885634
0.004215305
-0.000286107
0.003223468
0.010395209
0.013370717936980192
0.00459678
0.000782025
0.00459678
0.012760357061112337
0.013599603265430638
0.014820325017166347
0.013294423
0.005893797
0.009784848
1.907377737087046e-05
9.53688868543523e-05
0.004215305
0.00787747
0.005359731
0.006198978
0.006656748
0.009784848
0.014820325017166347
0.012455177
0.006427863
-0.005321584
-0.007763027
-0.007305257
0.00101091
0.006656748
0.010471503776607882
0.011005569542992255
0.012989242389562783
0.008945602
0.002002747
0.003604944
0.000629435
0.005130846
0.004520485
0.005664912
0.002841993
0.00757229
0.015506981002517684
0.022106507972838862
0.022564278629739754
0.007763027
-0.001850156
-0.009861143
0.000972763
0.014095521
0.019359884031433516
0.013637750820172378
0.010891126878767032
0.011577782864118369
0.002651255
0.007305257
0.007381552
0.013485160601205415
0.004863813
0.000667582
0.003032731
-0.000324254
0.005092699
0.011730373083085333
0.018291752
0.008602274
0.006542306
-0.001544976
0.010433356221866141
0.00600824
0.006923781
0.000133516
-0.001926452
-0.002002747
0.003109026
0.016765850308995134
0.020275425
0.017833982
0.00600824
-0.000782025
-0.0042916
-0.006504158
0.004024567
0.014095521
0.013408865491721933
0.007381552
0.00288014
0.000896468
0.008678569
0.015468833447775941
0.009670405
0.008754864
0.001049058
-0.000629435
-0.004062715
0.009670405
0.014400701915007197
0.019207293812466553
0.007228962
0.010128175783932214
0.004406043
-0.00444419
0.004634928
0.010051880674448732
0.019436179140916998
0.00989929
0.008754864
0.003337911
0.008144503
0.005321584
0.009975586
0.011959258411535778
0.011043717097733996
0.00928893
0.006542306
0.011806668192568814
0.011120012207217478
0.013332570382238451
0.008525978
0.00631342
0.003719387
0.002346075
0.008831159
0.010204470893415696
0.018978408484016107
0.008983749
0.003871977
-0.000324254
0.005931945
0.004711223
0.003795682
0.011043717097733996
0.005626764
-0.001850156
-0.005664912
0.008297093
0.014095521
0.00944152
0.000438697
0.00242237
-0.001087205
0.001354238
0.00257496
0.009060044
0.011425192645151405
-0.001621271
0.002117189
0.003490501
0.004940108
0.003414206
0.010280766002899178
0.011730373083085333
0.003490501
0.001812009
-0.001087205
0.00600824
0.008907454
0.015011062790875052
0.003948272
0.000896468
0.003109026
0.004100862
0.009212634
0.018978408484016107
0.013332570382238451
0.004711223
0.008373388
0.00585565
0.001964599
0.007839322
0.00944152
0.010051880674448732
0.009136339
0.015011062790875052
0.008831159
0.014400701915007197
0.013714046
0.013103685053788006
0.002651255
0.001354238
0.003948272
0.003871977
0.012569619287403633
0.016231785
0.014248111696040233
0.00959411
0.005474174
0.006237125
0.007000076
0.008754864
0.009517815
0.003643091
0.001735714
-9.54E-05
0.00272755
0.013714046
0.012951094834821042
0.011882963302052296
0.005550469
0.00585565
-0.001468681
-0.002841993
0.005550469
0.014095521
0.009822995
0.000591287
-0.005436027
-0.011921111
0.010585946440833105
0.022640573739223235
0.018825818265049143
0.013332570382238451
-0.002994583
-0.013599603
-0.008258946
0.008602274
0.013179980163271487
0.0128748
0.009975586
0.007763027
0.005779355
0.005779355
0.008220798
0.011196307
0.009212634
0.000591287
0.000743877
-0.001239796
0.011730373083085333
0.013332570382238451
0.023556115053025017
0.018520637827115216
0.002498665
0.000209812
-0.006122683
0.007000076
0.012035554
0.018902113374532625
0.010662241550316587
0.003032731
0.001888304
0.000591287
0.010814832
0.019626916914625703
0.019321736476691775
0.007953765
0.004367895
-0.011120012
-0.008373388
0.003376059
0.016193637
0.023517967498283276
0.019016556038757848
0.010624093995574846
0.005054551
0.017185473411154284
0.007190814
0.017032883
0.014820325017166347
0.021763179980163194
0.022755016403448458
0.028095674067292187
0.037251087
0.048847943846799614
0.039692530708781794
0.019474327
0.020923933775844894
0.030994888227664497
0.047474632
0.054951553
0.05983444
0.048084992751964796
0.037022202
0.022449836
0.019169146
0.024814984359502468
0.030842298008697533
0.037937743190661344
0.028324559395742632
0.030079346913862715
0.018024719615472584
0.002384222
-0.012340734
-0.028286412
-0.053921569
-0.070935378
-0.054303044
-0.041027695
-0.031948577
-0.039806973
-0.072232395
-0.090695811
-0.084134432
-0.078564889
-0.075818265
-0.081006332
-0.088559548
-0.080930037
-0.08634699
-0.055752651
-0.027523461
-0.014095521
-0.006542306
-0.007076371
-0.001049058
-0.007457847
0.002079042
0.015125505455100274
0.034580758
0.043736172
0.059224078736553144
0.063954376
0.053883421
0.048542763
0.052128634
0.064412146
0.068303197
0.064641032
0.050297551
0.047474632
0.03892958
0.026798657206072996
0.029850462
0.036564431
0.033970397
0.022602426184481494
0.021229114
0.012531471732661892
0.016956588
0.017719539177538657
0.013981078812848047
0.009937438
0.000324254
-0.001735714
-0.001430533
0.009479667
0.012302586404211446
0.013447013046463674
0.005741207
0.003223468
0.001621271
1.907377737087046e-05
0.004520485
0.005397879
0.014324406805523715
0.004863813
0.002193484
-0.003299763
0.004406043
0.012645914396887115
0.018596932936598698
0.016918440527962098
0.005931945
-0.006351568
-0.001392386
0.012569619287403633
0.012722209506370596
0.017147325856412543
0.00272755
-0.001621271
0.003719387
0.006389715
0.005931945
0.010357061
0.019130999
0.003871977
0.000362402
-0.002841993
0.007305257
0.007686732
0.008144503
0.007991913
0.006771191
0.005321584
-0.003986419
0.007763027
0.0097467
0.016918440527962098
0.007686732
0.007228962
0.006542306
0.007152667
0.00959411
0.009212634
0.005321584
-0.000324254
0.00989929
0.001964599
0.012264438849469705
0.017986572060730843
0.018444342717631734
0.011577782864118369
0.001812009
-0.005588617
-0.002536812
0.007915618
0.011730373083085333
0.011730373083085333
0.009365225
0.011882963302052296
0.003109026
0.006771191
0.005168994
0.007228962
0.010738536659800069
0.002803845
0.003337911
0.001201648
0.002346075
0.008220798
0.017147325856412543
0.016460669871061206
-0.000171664
-0.003910124
-0.004978256
0.005703059
0.016308079652094243
0.013714046
0.006084535
0.001506828
-0.001773861
0.002803845
0.012111848630502742
0.008678569
0.011272602426184442
0.00616083
0.004100862
-9.54E-05
0.007152667
0.015163653009842015
0.019359884031433516
0.017833982
0.003948272
-0.004825666
-0.003070878
0.015774014
0.019359884031433516
0.018749523
0.007991913
0.009975586
0.008678569
0.004863813
0.005321584
0.009365225
0.01661326
0.002193484
0.004558633
0.005016403
0.013256275
0.014705882352941124
0.010738536659800069
0.007686732
-0.002307927
-0.00070573
0.001201648
0.007610437
0.008220798
0.015697718776226388
0.008525978
0.006084535
0.003337911
0.004711223
0.009517815
0.012188143739986224
0.008297093
-0.000629435
0.005474174
0.011577782864118369
0.016231785
0.014858472571908088
0.008983749
0.007763027
0.003414206
0.004024567
0.004406043
0.013866636148622824
0.016994736
0.013103685053788006
0.003414206
0.000972763
0.004253452
0.00272755
0.008983749
0.013637750820172378
0.014629587243457642
0.003948272
0.001506828
-0.001392386
0.003643091
0.009670405
0.010128175783932214
0.013103685053788006
0.003795682
0.000209812
-0.006351568
0.009136339
0.010662241550316587
0.011806668192568814
0.004863813
0.006237125
0.004024567
0.003337911
0.009136339
0.003566796
0.007686732
0.004253452
0.00288014
-0.002155337
0.001812009
0.00944152
0.011959258411535778
0.012417029068436669
0.001812009
-0.002536812
-0.006504158
0.000972763
0.002803845
0.007457847
0.000209812
-0.005893797
-0.003833829
5.722133211261138e-05
0.005397879
0.009212634
0.007381552
-0.004367895
5.722133211261138e-05
-0.002918288
0.002346075
0.00257496
0.009060044
0.005703059
0.003109026
0.002498665
0.001430533
0.006694896
0.010509651331349623
0.019130999
0.013942931258106306
0.010051880674448732
0.006389715
0.000591287
0.007305257
0.008106355
0.008258946
0.00818265
0.010166323338673955
0.007114519
0.016575113
0.019626916914625703
0.014591439688715901
0.010471503776607882
0.005512322
0.007419699
0.002307927
0.011081864652475737
0.012302586404211446
0.015888456549935093
0.013370717936980192
0.016498817425802947
0.01161593
0.014972915
0.018482490272373475
0.011539635309376628
0.010395209
0.004673075
0.004673075
0.00070573
0.014667734798199383
0.02161059
0.024738689250018986
0.015125505455100274
0.00818265
-5.72E-05
-0.000514992
0.012149996185244483
0.013981078812848047
0.011005569542992255
0.006656748
0.007648585
0.009708553
0.007419699
0.010929274433508773
0.012378881513694928
0.011158159761959219
-0.001430533
-0.004024567
-0.003719387
0.009250782
0.015812161
0.015049210345616792
0.011158159761959219
0.006961929
0.001773861
-0.004024567
0.001087205
0.008945602
0.010242618448157437
0.002841993
0.002536812
0.0042916
0.004215305
0.012607766842145374
0.018863965819790884
0.014896620126649829
-0.002803845
-0.004787518
-0.001277943
0.001239796
0.005512322
0.014362554360265456
0.013141832608529747
0.010090028229190473
0.000400549
-0.000209812
0.006656748
0.008335241
0.009861143
0.003604944
0.004901961
-0.001812009
-0.000591287
0.009937438
0.016803997863736875
0.011921110856794037
-0.004177157
-5.72E-05
0.0011635
0.008335241
0.013523308155947156
0.00787747
0.006733043
0.001239796
-0.003032731
0.00413901
0.013523308155947156
0.016880292973220357
0.010547798886091364
0.001468681
-0.002346075
-0.000286107
0.007114519
0.011768520637827073
0.011577782864118369
0.013866636148622824
0.008220798
0.005168994
0.002384222
0.007076371
0.002841993
0.005779355
0.013027389944304524
0.004673075
0.000629435
0.002918288
0.008373388
0.007610437
0.010509651331349623
0.001239796
0.002231632
-0.003795682
-0.003109026
0.00959411
0.013103685053788006
0.008983749
0.002765698
0.002536812
-0.000438697
0.008602274
0.010585946440833105
0.012264438849469705
0.007076371
-0.00272755
0.001697566
0.009060044
0.018825818265049143
0.020428015564202262
0.013942931258106306
0.005168994
0.003223468
0.004863813
0.003376059
0.009975586
0.019054704
0.015697718776226388
0.005397879
0.001468681
0.000171664
0.012645914396887115
0.013942931258106306
0.010433356221866141
0.009975586
0.005779355
-0.005168994
0.001621271
0.010967421988250514
0.008831159
0.014705882352941124
0.005703059
0.001087205
0.00055314
0.002384222
0.015545128557259423
0.017681391622796916
0.007991913
0.000476844
-0.003109026
-0.001735714
0.009365225
0.013637750820172378
0.012569619287403633
0.008068208
0.005626764
0.00459678
0.00444419
0.008144503
0.006466011
0.005779355
0.003757534
0.007534142
0.002536812
0.005016403
0.008449683
0.008525978
0.016460669871061206
0.002384222
0.001621271
0.004062715
0.014019226367589788
0.007610437
0.005779355
0.006847486
0.002307927
0.00055314
0.002841993
0.016231785
0.018520637827115216
0.017223620965896025
0.008449683
0.005016403
-0.005016403
-0.003337911
0.010051880674448732
0.014820325017166347
0.012607766842145374
0.006351568
0.002079042
0.003452354
0.009708553
0.012836652
0.012455177
0.006885634
-0.000820172
-0.002651255
0.002002747
0.011081864652475737
0.010318913557640919
0.013141832608529747
0.008411536
0.004215305
0.002536812
0.003757534
0.012149996185244483
0.013599603265430638
0.007419699
0.00413901
0.000934615
0.000324254
0.013294423
0.012607766842145374
0.013218127718013228
0.007419699
0.002002747
-0.001354238
0.000400549
0.010090028229190473
0.011005569542992255
0.01161593
0.002155337
-0.000820172
0.00101091
0.003376059
0.009327077
0.014362554360265456
0.009555962
0.002689403
-0.000362402
-0.001049058
0.006885634
0.015354391
0.010318913557640919
0.008411536
0.005512322
-5.72E-05
0.00459678
0.013828488593881083
0.014591439688715901
0.014209964141298492
0.006427863
0.001621271
-0.001964599
0.003376059
0.014591439688715901
0.021152819
0.009250782
0.000171664
0.00085832
0.001697566
0.012378881513694928
0.010471503776607882
0.007343404
0.009708553
0.002536812
0.00101091
-0.001583124
0.008564126
0.013523308155947156
0.018253605
0.005588617
0.000629435
-0.004253452
-5.72E-05
0.00787747
0.012989242389562783
0.003757534
0.002689403
0.016803997863736875
0.004673075
0.002613107
0.002155337
0.005054551
0.010471503776607882
0.003299763
0.001316091
0.001544976
0.013065537499046265
0.014515145
0.013523308155947156
0.008640421
0.006961929
0.002994583
0.005893797
0.011234455
0.017109178301670802
0.012455177
-0.002193484
0.00818265
0.009479667
0.011539635309376628
0.018177309834439548
0.021000228885328376
0.018024719615472584
0.005817502
-0.001812009
0.001621271
0.009479667
0.012531471732661892
0.010318913557640919
0.006809339
0.008335241
0.009861143
0.008716716
0.010242618448157437
0.012226291294727964
0.006351568
-0.003490501
-0.007457847
-0.003566796
0.006733043
0.009098192
0.012684061951628856
0.011081864652475737
0.000476844
-0.008449683
-0.003871977
0.011387045090409664
0.008564126
0.012226291294727964
-0.003337911
-0.003414206
-0.000514992
-0.001354238
0.006580453
0.015278095674067238
0.008487831
0.004749371
-0.001049058
0.000324254
0.005207141
0.005436027
0.008716716
-0.000133516
0.002918288
-0.002040894
0.00413901
0.009937438
0.012226291294727964
0.012302586404211446
0.00757229
9.53688868543523e-05
-0.000133516
0.006122683
0.012073701
0.011997405966277519
0.011387045090409664
0.004978256
0.005893797
0.011844815747310555
0.018177309834439548
0.016956588
0.010090028229190473
0.009021897
0.003681239
-0.001735714
0.0042916
0.017261768520637766
0.022755016403448458
0.018482490272373475
0.003986419
-0.001735714
0.00055314
0.007801175
0.009555962
0.012531471732661892
0.011310749980926182
0.005588617
-0.002346075
-0.000286107
0.010929274433508773
0.011081864652475737
0.015278095674067238
0.010852979324025291
0.005588617
-0.008449683
0.002002747
0.009327077
0.016269932097352502
0.011997405966277519
0.003604944
0.002918288
0.00459678
0.006885634
0.011463340199893146
0.021419851987487526
0.011730373083085333
-0.001087205
0.000743877
0.00272755
0.013408865491721933
0.018596932936598698
0.016689555199511652
0.015392538338292459
0.005931945
-0.000171664
0.002498665
0.010814832
0.015316243228808977
0.019588769359883962
0.008907454
0.004558633
0.001277943
0.009136339
0.019207293812466553
0.015163653009842015
0.010967421988250514
0.003871977
-0.000247959
0.003337911
0.013408865491721933
0.013485160601205415
0.015850308995193352
0.016308079652094243
0.011654078
-0.000934615
-0.005130846
0.003337911
0.010357061
0.016231785
0.008831159
0.013408865491721933
0.009975586
0.012493324177920151
0.010433356221866141
0.018749523
0.018444342717631734
0.007839322
0.003261616
0.019054704
0.02363241
0.034161135
0.043926909285115036
0.042477302
0.035458152132448184
0.028439002059967855
0.029278248264286155
0.03408484
0.038433661402303976
0.045376516
0.046749828336003864
0.047283894
0.04812314
0.051174945
0.055828946
0.04438468
0.025539787899595545
0.015239948119325497
0.020809491
0.023098344396124126
0.018902113374532625
0.030727855344472314
0.029507134
0.010814832
-0.007267109
-0.030460822
-0.061284047
-0.068455787
-0.048237583
-0.043430991
-0.041752499
-0.053959716
-0.072423133
-0.075093462
-0.072423133
-0.07433051
-0.07402533
-0.08119707
-0.088902876
-0.080205234
-0.068303197
-0.045185779
-0.022144656
-0.012226291
-0.013370718
-0.007190814
-0.004978256
0.015621423666742905
0.018978408484016107
0.036984054
0.038662547
0.047131304
0.047436484
0.052853437
0.058728161
0.062161440451667195
0.06155108
0.056439307240406064
0.057888914
0.057965209430075694
0.05125124
0.046978714
0.038433661402303976
0.036144808
0.027447166
0.019054704
0.017681391622796916
0.014324406805523715
0.02035172
0.019283588921950034
0.011272602426184442
0.014324406805523715
0.00616083
0.001888304
0.002803845
0.006694896
0.000514992
-0.003223468
-0.005130846
0.000743877
0.008678569
0.004787518
0.004558633
-0.00070573
-0.001468681
-0.002765698
0.000820172
0.009517815
0.007686732
0.007000076
0.002117189
-0.00055314
-0.004215305
0.001430533
0.008449683
0.012645914396887115
0.012722209506370596
-9.54E-05
0.001049058
0.005321584
0.00944152
0.011348897535667923
0.006694896
0.004406043
0.003719387
0.001430533
0.00288014
0.008449683
0.010967421988250514
0.011730373083085333
0.00226978
-0.00085832
0.001812009
0.003719387
0.012722209506370596
0.009975586
-0.001468681
-0.001544976
0.002193484
-0.001087205
0.008068208
0.008373388
0.006389715
0.004177157
-0.000171664
-0.002155337
0.002346075
0.007534142
0.007610437
0.007381552
0.004024567
-0.000400549
0.003185321
0.002193484
0.005703059
0.009670405
0.005245289
-0.000629435
-0.000934615
0.000667582
0.010204470893415696
0.012111848630502742
0.013942931258106306
0.008678569
-0.000629435
-0.007495995
-0.006275273
0.003643091
0.009670405
0.004940108
0.007763027
0.010738536659800069
0.0097467
0.000438697
-1.91E-05
0.003032731
0.006237125
0.003337911
-0.000247959
0.001506828
0.011120012207217478
0.016002899214160315
0.016918440527962098
0.010051880674448732
-0.002307927
-0.004825666
0.004482338
0.012722209506370596
0.018902113374532625
0.011959258411535778
0.004940108
0.000820172
0.001277943
0.00928893
0.015468833447775941
0.02035172
0.013714046
0.004787518
0.000820172
0.003032731
0.005626764
0.015316243228808977
0.013332570382238451
0.013790341039139342
0.012417029068436669
0.002651255
0.004100862
0.013561455710688897
0.016384374761577725
0.007534142
0.003795682
0.005931945
0.00989929
0.009212634
0.009517815
0.0128748
0.009365225
0.007000076
0.004482338
0.008831159
0.011501487754634887
0.007839322
0.011425192645151405
0.002040894
0.000743877
0.003337911
0.005626764
0.010585946440833105
0.012645914396887115
0.010814832
0.005016403
0.003643091
-0.001239796
0.001964599
0.007534142
0.011348897535667923
0.008907454
0.00226978
-0.001621271
0.000743877
0.009517815
0.011730373083085333
0.012722209506370596
0.004558633
5.722133211261138e-05
-0.004978256
0.000972763
0.007534142
0.016308079652094243
0.008068208
0.002040894
-0.003299763
-1.91E-05
0.00631342
0.012569619287403633
0.013027389944304524
0.00585565
0.000133516
-0.00803006
-0.002841993
0.008602274
0.013485160601205415
0.012417029068436669
0.007457847
0.004024567
-0.003147173
-0.000324254
0.00928893
0.010051880674448732
0.007000076
-0.000171664
-0.00459678
-0.002994583
0.007686732
0.010967421988250514
0.017910277
0.003490501
-0.007953765
-0.009479667
-0.004749371
0.00257496
0.00928893
0.00616083
0.002498665
-0.005817502
-0.004825666
0.001354238
0.004711223
0.005550469
0.001430533
-0.00055314
-0.003223468
-0.001239796
-0.001239796
0.00928893
0.010357061
0.007457847
0.001354238
0.000209812
0.004024567
0.008144503
0.008144503
0.011882963302052296
0.010433356221866141
0.005779355
-0.002689403
0.006237125
0.018520637827115216
0.020962081330586635
0.014934768
0.004863813
0.004940108
0.003490501
0.007228962
0.014171816586556751
0.020199130235751817
0.012569619287403633
0.007839322
0.008144503
0.00989929
0.014476997024490679
0.014858472571908088
0.014019226367589788
0.010204470893415696
0.004024567
-0.001239796
0.009365225
0.020809491
0.02363241
0.012035554
0.008754864
0.005016403
0.001430533
0.005703059
0.013485160601205415
0.017986572060730843
0.013714046
0.007305257
0.002193484
0.005474174
0.014782177462424606
0.014934768
0.014782177462424606
0.008983749
0.003185321
0.000514992
0.006542306
0.012188143739986224
0.017910277
0.011806668192568814
0.00600824
0.003719387
0.002040894
0.007305257
0.010357061
0.012645914396887115
0.007152667
0.005397879
0.000743877
0.000438697
0.006923781
0.011120012207217478
0.011196307
0.006847486
0.00272755
-0.000400549
0.003109026
0.010280766002899178
0.010509651331349623
0.008754864
0.004711223
0.00272755
0.002193484
0.005931945
0.009517815
0.014629587243457642
0.007000076
0.001964599
0.001659419
0.007152667
0.010280766002899178
0.011348897535667923
0.012340733958953187
0.009060044
-1.91E-05
-0.00085832
0.00600824
0.013866636148622824
0.017986572060730843
0.013561455710688897
0.006542306
0.004787518
0.001735714
0.00272755
0.012035554
0.014400701915007197
0.010662241550316587
0.003948272
0.001430533
0.007763027
0.012264438849469705
0.010280766002899178
0.010738536659800069
0.006847486
-0.000934615
-0.003452354
0.003414206
0.011882963302052296
0.014934768
0.010509651331349623
0.003490501
-0.000324254
0.000972763
0.003261616
0.013027389944304524
0.020962081330586635
0.008220798
-0.005283436
-0.002994583
0.004024567
0.011120012207217478
0.013866636148622824
0.014095521
0.007763027
0.00288014
-0.003452354
0.006389715
0.00989929
0.014553292
0.008144503
0.005168994
0.000133516
-0.000171664
0.007152667
0.010509651331349623
0.015316243228808977
0.006389715
0.003871977
0.001506828
0.000362402
0.005703059
0.008144503
0.010891126878767032
0.008373388
0.003948272
-0.002918288
0.007610437
0.006923781
0.010967421988250514
0.007457847
0.00226978
0.003337911
0.00272755
0.008297093
0.0097467
0.010128175783932214
0.00288014
0.001125353
0.004634928
0.007457847
0.0097467
0.014248111696040233
0.012951094834821042
0.009975586
-0.003757534
-0.004673075
0.007763027
0.015850308995193352
0.016231785
0.010357061
0.005321584
0.003337911
0.00272755
0.008907454
0.012722209506370596
0.013408865491721933
0.007686732
0.00242237
-0.000400549
0.007534142
0.010662241550316587
0.010662241550316587
0.0128748
0.007228962
0.003032731
-0.004901961
0.004558633
0.011501487754634887
0.013714046
0.010128175783932214
0.001583124
0.000896468
0.000209812
0.007228962
0.011348897535667923
0.00944152
0.004482338
-0.000324254
0.001964599
0.010128175783932214
0.009975586
0.006771191
0.009822995
0.005321584
0.00257496
0.001125353
0.00631342
0.012645914396887115
0.016689555199511652
0.007457847
0.00631342
0.003185321
0.002193484
0.008602274
0.012035554
0.015316243228808977
0.007228962
0.005397879
0.00257496
0.003566796
0.008754864
0.011272602426184442
0.012951094834821042
0.010738536659800069
0.005321584
-0.002689403
0.002956435
0.004406043
0.010357061
0.010051880674448732
0.010509651331349623
0.004100862
-0.003604944
0.003719387
0.007152667
0.013408865491721933
0.007305257
0.002803845
-0.002765698
0.005016403
0.009365225
0.00944152
0.011882963302052296
0.005245289
-1.91E-05
0.000438697
0.012188143739986224
0.010280766002899178
0.014476997024490679
0.007991913
0.00257496
0.00272755
0.003032731
0.007457847
0.014095521
0.019665064469367444
0.010204470893415696
-0.000324254
-0.0011635
0.002651255
0.009060044
0.011348897535667923
0.010051880674448732
0.014400701915007197
0.008373388
-0.002689403
0.004940108
0.011120012207217478
0.011043717097733996
0.007152667
0.004100862
0.001354238
0.003261616
0.011501487754634887
0.016994736
0.013103685053788006
0.004100862
-0.001926452
0.002040894
0.007457847
0.007381552
0.006923781
0.013866636148622824
0.017833982
0.003795682
-0.007114519
0.003948272
0.008220798
0.013408865491721933
0.009975586
0.005092699
0.003261616
0.001659419
0.00928893
0.013332570382238451
0.015545128557259423
0.005397879
0.004100862
0.004024567
0.004940108
0.010585946440833105
0.016460669871061206
0.017071031
0.010891126878767032
0.005931945
0.000667582
0.00928893
0.016536965
0.020428015564202262
0.015087357900358533
0.008602274
0.004177157
0.001201648
0.010891126878767032
0.014324406805523715
0.016765850308995134
0.008983749
0.005092699
-0.000171664
0.005397879
0.013408865491721933
0.003795682
0.00616083
0.0128748
0.001583124
-0.008793011
0.000743877
0.013637750820172378
0.010891126878767032
0.005703059
-0.002002747
-0.000782025
0.00257496
0.002651255
0.009365225
0.016002899214160315
0.000286107
-0.002994583
-0.002460517
-0.002689403
0.003795682
0.011654078
0.018902113374532625
0.005703059
-0.00459678
-0.00413901
0.003719387
0.007076371
0.008449683
0.003109026
0.002803845
-0.002231632
-0.000247959
0.009517815
0.016765850308995134
0.014934768
0.003490501
0.003719387
-0.000629435
-0.002384222
0.007000076
0.014553292
0.019512474
0.010509651331349623
0.000514992
0.001277943
0.009822995
0.011120012207217478
0.017452506
0.00959411
0.005321584
0.00288014
0.003871977
0.009822995
0.014934768
0.014286259250781974
0.003604944
0.001239796
-0.003719387
0.002079042
0.013218127718013228
0.007267109
0.004367895
0.009021897
9.53688868543523e-05
-0.003719387
0.012684061951628856
0.00818265
0.013065537499046265
0.002994583
-0.001888304
-0.010509651
0.003223468
0.009708553
0.011997405966277519
0.012073701
0.003528649
0.001697566
-0.004406043
-0.000362402
0.0042916
0.007495995
0.008487831
0.004215305
0.001316091
-0.003261616
0.004520485
0.004520485
0.011539635309376628
0.009861143
0.002994583
-0.000972763
-0.000286107
0.002002747
0.009937438
0.014438849469748938
0.003910124
0.003528649
-0.001506828
0.003376059
0.009937438
0.008945602
0.007114519
0.002689403
0.001087205
0.001697566
0.007495995
0.004215305
0.010318913557640919
0.007419699
0.003910124
-0.006694896
-0.009136339
-0.000362402
0.006961929
0.019626916914625703
0.005664912
-0.003795682
-0.015087358
-0.007610437
0.006504158
0.009403372
0.008793011
0.006504158
-0.001735714
-0.003032731
0.0042916
0.013523308155947156
0.018863965819790884
0.014209964141298492
0.011387045090409664
0.017261768520637766
0.027485313191424332
0.027943083848325223
0.037251087
0.032902266
0.023899443045700686
0.028171969
0.030918593
0.044651713
0.046711681
0.048847943846799614
0.0495346
0.044956893
0.032597085526817615
0.02534905
0.021305409323262303
0.026417181658655586
0.033131151
0.030689708
0.023823147936217204
0.028019378957808705
0.004367895
-0.010509651
-0.021877623
-0.034199283
-0.058079652
-0.056630045
-0.050831617
-0.040989548
-0.040226596
-0.046635386
-0.071507591
-0.084935531
-0.079671168
-0.085317006
-0.076848249
-0.095616846
-0.076543069
-0.06715877
-0.05685893
-0.040150301
-0.027561608
-0.021000229
-0.005588617
0.003871977
0.003719387
0.006237125
0.013027389944304524
0.032406348
0.046749828336003864
0.050793469
0.058728161
0.057583733882658285
0.057888914
0.056363012130922575
0.063382162
0.06887541
0.071393149
0.06185626
0.047817959868772617
0.041409170672160135
0.039730678
0.040951400015259244
0.039349202716106126
0.036526284
0.026836804760814736
0.020733196
0.015316243228808977
0.024242771038376354
0.025921263447012954
0.016231785
0.011730373083085333
0.014400701915007197
0.008220798
0.00242237
0.015774014
0.007534142
0.017757686732280398
0.011272602426184442
0.00226978
0.002193484
0.004406043
0.010585946440833105
0.013714046
0.016765850308995134
0.00928893
0.004253452
-0.001087205
0.004253452
0.015697718776226388
0.014476997024490679
0.0097467
0.009822995
0.004482338
0.001888304
0.003871977
0.010814832
0.026455329213397327
0.014324406805523715
0.006618601
0.007686732
-0.001621271
-0.001239796
0.011501487754634887
0.028896772716868746
0.011730373083085333
0.007000076
-0.003604944
0.012951094834821042
0.014476997024490679
0.013561455710688897
0.013256275
0.005474174
0.001735714
0.004863813
0.015392538338292459
0.01661326
0.016155489
0.006694896
0.005321584
0.005550469
0.004558633
0.010357061
0.012569619287403633
0.017185473411154284
0.012607766842145374
0.002536812
-0.00616083
0.005741207
0.009250782
0.007190814
0.003833829
0.010776684
0.010776684
0.002079042
0.007114519
0.008258946
0.015354391
0.007801175
0.007190814
0.005588617
0.002384222
0.006656748
0.01161593
0.016727702754253393
0.009327077
0.012149996185244483
-0.001583124
0.005741207
0.009021897
0.013523308155947156
0.013752193484397601
-0.000667582
0.004825666
0.002765698
0.003528649
0.007267109
0.018940260929274366
0.009479667
0.002841993
0.000934615
-0.001506828
0.004520485
0.011234455
0.019169146
0.011081864652475737
0.003604944
-0.005931945
0.009327077
0.016956588
0.016041046768902056
0.010852979324025291
0.009098192
0.000629435
0.005283436
0.012684061951628856
0.011081864652475737
0.018863965819790884
0.009327077
0.010166323338673955
0.001621271
-0.001125353
0.007343404
0.017948424505989102
0.016651408
0.00413901
0.001697566
-0.001888304
0.005588617
0.010929274433508773
0.009555962
0.013218127718013228
0.004215305
0.001468681
-0.007457847
0.006961929
0.012531471732661892
0.014515145
0.004520485
0.002841993
0.000629435
0.002155337
0.005512322
0.007495995
0.010929274433508773
0.0042916
0.00757229
-0.001430533
0.005054551
0.010318913557640919
0.007419699
0.011539635309376628
0.007648585
0.000171664
-0.001430533
0.007038224
0.009327077
0.012989242389562783
0.007419699
0.012989242389562783
0.002613107
-0.0097467
-0.000591287
0.013447013046463674
0.012378881513694928
0.002155337
0.00413901
0.003299763
0.004367895
0.006122683
0.006656748
0.002994583
-0.000362402
-5.72E-05
1.907377737087046e-05
0.00803006
0.011387045090409664
0.012836652
0.006504158
0.005283436
0.001392386
1.907377737087046e-05
0.005130846
0.004749371
0.011387045090409664
0.008640421
0.010624093995574846
-0.000820172
-0.000133516
0.001087205
0.007114519
0.00772488
0.004749371
0.002613107
-0.003261616
-0.000362402
0.001621271
0.00772488
0.002079042
-0.008144503
-0.002651255
-0.003490501
-0.00616083
0.002384222
0.004673075
0.002613107
0.007648585
0.003681239
-0.009822995
-0.000286107
0.00085832
0.006198978
-0.003032731
0.001850156
-0.001125353
0.010776684
0.014209964141298492
0.016880292973220357
0.01161593
0.006733043
-0.000972763
0.00818265
0.016346227206835984
0.016422522316319466
0.005054551
0.005970092
0.022602426184481494
0.006580453
0.015125505455100274
0.018558785381856957
0.006656748
0.016346227206835984
0.019245441367208294
0.007267109
0.003757534
0.007801175
0.012149996185244483
0.018101014724956066
0.006198978
0.003986419
0.010090028229190473
0.011997405966277519
0.010395209
0.014515145
0.017643244068055175
0.007343404
0.002460517
-0.001888304
0.012302586404211446
0.015049210345616792
0.012836652
0.013599603265430638
0.011844815747310555
0.002231632
0.003528649
0.013752193484397601
0.021076523994811858
0.014820325017166347
0.004520485
0.006733043
0.001697566
-0.00257496
0.014972915
0.024814984359502468
0.017605096513313434
0.001812009
0.007076371
0.001812009
0.007763027
0.008220798
0.010814832
0.014858472571908088
0.007686732
0.004406043
0.005779355
0.011120012207217478
0.007610437
0.011196307
0.013408865491721933
0.006847486
0.002040894
-0.000400549
0.001354238
0.015087357900358533
0.015774014
0.005321584
0.008449683
0.003032731
0.009517815
0.011120012207217478
-0.000171664
0.003948272
0.009822995
0.006237125
0.00242237
0.013790341039139342
0.018978408484016107
0.013714046
0.009975586
-0.005741207
-0.003757534
0.004329747
0.020046540016784853
0.018291752
0.010509651331349623
0.002040894
-0.003986419
0.003261616
0.010509651331349623
0.004711223
0.008220798
0.015545128557259423
0.003261616
-0.002536812
-0.003528649
0.001888304
0.005779355
0.014248111696040233
0.006771191
0.007381552
-0.002689403
-0.000782025
-0.002155337
0.009517815
0.014171816586556751
0.003948272
0.00631342
0.001583124
0.004329747
0.00616083
0.012417029068436669
0.015087357900358533
0.001583124
-0.000782025
-0.00101091
0.011272602426184442
0.014705882352941124
0.019283588921950034
0.00928893
-0.002079042
0.005245289
0.004024567
0.007000076
0.013256275
0.011272602426184442
0.001583124
0.007915618
0.003337911
0.008449683
0.014934768
0.013561455710688897
0.003719387
-0.006656748
-0.00818265
0.014400701915007197
0.021725032425421453
0.003414206
0.011882963302052296
0.007152667
0.001049058
-0.003299763
0.001964599
0.00989929
0.016155489
0.016384374761577725
-0.002384222
-0.001621271
0.005092699
0.010585946440833105
0.007991913
0.00989929
0.013485160601205415
0.006084535
-0.00070573
-0.002536812
0.008220798
0.016155489
0.026302738994430364
0.007000076
-0.00444419
-0.002460517
0.000438697
0.010891126878767032
0.016231785
0.017147325856412543
0.006923781
0.003337911
-1.91E-05
0.005245289
0.010891126878767032
0.011043717097733996
0.011196307
0.001201648
-0.002384222
-0.004825666
0.010433356221866141
0.018291752
0.014324406805523715
0.005626764
0.006237125
0.00585565
0.001201648
0.008373388
0.008449683
0.009365225
-0.000171664
0.003795682
0.005779355
0.015545128557259423
0.022640573739223235
0.016689555199511652
0.008983749
0.001354238
-0.004673075
-0.007267109
0.012111848630502742
0.017757686732280398
0.013408865491721933
0.002956435
0.004406043
0.005321584
0.004940108
0.012264438849469705
0.010509651331349623
0.007228962
-0.003223468
-0.002002747
-0.002613107
0.004787518
0.012340733958953187
0.006389715
0.008602274
0.004177157
0.00600824
0.00257496
0.014858472571908088
0.001659419
0.006466011
0.000896468
0.00272755
-0.001926452
0.002117189
0.014476997024490679
0.017757686732280398
0.017605096513313434
0.004100862
-0.004901961
-0.004901961
0.013790341039139342
0.015926604104676834
0.011501487754634887
0.013103685053788006
0.000591287
-0.002155337
0.001888304
0.013485160601205415
0.017681391622796916
0.016002899214160315
0.007381552
0.012188143739986224
-0.001621271
-0.004520485
0.005168994
0.016765850308995134
0.014972915
0.006351568
-0.000896468
-0.004711223
0.007190814
0.009708553
0.009479667
0.005817502
0.0042916
0.00085832
-0.000286107
0.010013733119706991
0.006733043
0.002155337
0.0011635
0.011997405966277519
0.007419699
0.003681239
0.008564126
0.015201800564583756
0.015659571221484647
0.010471503776607882
0.005512322
-0.001735714
-0.005168994
0.013981078812848047
0.030766002899214048
0.022831312
0.013981078812848047
0.004749371
0.000400549
0.012149996185244483
0.017185473411154284
0.018101014724956066
0.008564126
-0.000743877
-0.000362402
0.016346227206835984
0.019932097
0.020695048
0.013294423
0.003223468
-0.003795682
-0.005474174
0.001773861
0.006198978
0.008258946
0.012149996185244483
0.004062715
-0.005703059
-0.004558633
0.005512322
0.007648585
0.00787747
-0.003719387
-0.004634928
-0.003643091
-0.003643091
-0.001506828
0.012073701
0.012607766842145374
0.009555962
0.000324254
-0.006847486
0.005054551
0.009555962
0.013065537499046265
-0.001049058
-0.000591287
-0.000820172
0.006198978
0.011310749980926182
0.017261768520637766
0.014438849469748938
0.007495995
-0.000438697
-0.002651255
0.007343404
0.007114519
0.012912947280079301
0.013523308155947156
0.002689403
0.002079042
0.004749371
0.012073701
0.014820325017166347
0.018177309834439548
0.00803006
0.005207141
0.005283436
0.004901961
0.006809339
0.007648585
0.008945602
0.012073701
0.011081864652475737
0.003299763
0.007801175
0.011768520637827073
0.015735866
0.011158159761959219
-0.00928893
-0.000743877
-0.001125353
0.008869306
0.011310749980926182
0.006885634
0.007419699
-0.000591287
-0.001659419
0.001468681
0.007267109
0.011081864652475737
0.015430685893034202
0.002002747
-0.005779355
-0.007228962
0.000324254
0.008716716
0.014896620126649829
0.004825666
-0.003719387
-0.001354238
0.011844815747310555
0.010547798886091364
0.002460517
0.003833829
0.000629435
0.004520485
0.002918288
0.004901961
0.008793011
0.010090028229190473
0.016269932097352502
0.006961929
0.001087205
-0.002956435
-0.003414206
0.008564126
0.021305409323262303
0.015964751659418575
0.001392386
-0.002117189
-0.008220798
0.004978256
0.00757229
0.008487831
0.003604944
0.002002747
0.006961929
0.003223468
-0.005092699
0.0042916
0.008564126
0.000400549
-0.004558633
-0.001812009
-0.002651255
0.010547798886091364
0.012989242389562783
-0.000820172
-0.00257496
0.002307927
0.003757534
-0.000896468
0.007801175
0.010929274433508773
0.008945602
0.006351568
0.001773861
0.002079042
0.015278095674067238
0.026035706111238177
0.034580758
0.022526131074998013
0.020847638666361412
0.023899443045700686
0.023517967498283276
0.032215609979400206
0.03580148
0.032597085526817615
0.04625391
0.047550927
0.035572595
0.043354696
0.049916075
0.048847943846799614
0.043659876
0.029240100709544414
0.021000228885328376
0.014515145
0.027866789
0.036411841
0.030537117570763606
0.023441672388799795
0.013599603265430638
-0.011196307
-0.02019913
-0.025463493
-0.056286717
-0.066891737
-0.063382162
-0.070630198
-0.05155642
-0.041332876
-0.053311208
-0.07543679
-0.069104295
-0.086079957
-0.101110094
-0.120870527
-0.094548714
-0.066586557
-0.058041505
-0.043850614
-0.035152972
-0.025844968
-0.015926604
9.53688868543523e-05
0.011844815747310555
0.009098192
0.012607766842145374
0.025654230563820768
0.028706035
0.044651713
0.057011521
0.068989853
0.065403983
0.06700618
0.0635729
0.06715877
0.071660182
0.066014343
0.060521095597772336
0.048237583
0.04594873
0.039768825818265276
0.031681544
0.037861448
0.037174792095826525
0.030308232
0.014591439688715901
0.020084687571526594
0.016575113
0.029621576256961824
0.020847638666361412
0.00757229
0.006046387
0.004673075
0.001544976
0.002002747
0.013675898
0.013904783703364565
0.016041046768902056
0.004215305
0.004749371
0.005054551
0.00459678
0.013675898
0.003986419
0.008869306
0.002689403
0.005817502
0.004901961
0.013523308155947156
0.01863508
0.016803997863736875
0.013294423
0.004825666
-0.005703059
0.002460517
0.011692225528343592
0.013752193484397601
0.023289082
0.00787747
0.008487831
0.011692225528343592
0.006198978
0.010852979324025291
0.017872129
0.007114519
0.00101091
0.012531471732661892
0.007343404
0.015888456549935093
0.012912947280079301
0.012226291294727964
0.005970092
0.00818265
9.53688868543523e-05
0.00772488
0.016956588
0.016041046768902056
0.013370717936980192
0.002918288
0.003604944
0.003070878
0.003070878
0.010471503776607882
0.012607766842145374
0.014667734798199383
0.004520485
0.003376059
0.003757534
0.006809339
0.006809339
0.008945602
0.006656748
-0.000591287
-0.004711223
0.002307927
0.017414359
0.018024719615472584
0.015201800564583756
0.002536812
0.000247959
-0.000896468
0.001926452
0.007953765
0.009174487
0.015735866
0.009250782
0.006427863
0.003757534
0.00772488
0.013828488593881083
0.013065537499046265
0.006046387
0.00413901
0.006885634
0.007343404
0.014515145
0.009250782
0.017032883
0.002765698
0.003604944
0.005817502
0.002689403
0.016422522316319466
0.019703212024109185
0.010547798886091364
0.004062715
0.001087205
0.000324254
0.010318913557640919
0.009861143
0.012989242389562783
0.005893797
0.003986419
0.00444419
0.009021897
0.014667734798199383
0.014286259250781974
0.006656748
1.907377737087046e-05
-0.001277943
-0.005016403
-0.001049058
0.014972915
0.020542458228427485
0.019855802
-0.000743877
-0.001735714
-0.008678569
0.002765698
0.004978256
0.015278095674067238
0.014972915
0.004673075
-0.001506828
0.003223468
0.009784848
0.011387045090409664
0.014286259250781974
0.006351568
0.002994583
0.004825666
0.005130846
0.010318913557640919
0.015964751659418575
0.016498817425802947
0.009098192
-0.003032731
-0.001812009
0.003299763
0.014057373922331529
0.013981078812848047
0.007419699
-0.003719387
0.00413901
0.006046387
0.008487831
0.010471503776607882
0.002231632
-0.009060044
0.005283436
0.001087205
0.00459678
0.006733043
0.012989242389562783
0.014400701915007197
0.002193484
-0.00818265
-0.003376059
0.006923781
0.012188143739986224
0.011577782864118369
0.007991913
0.002040894
0.002651255
0.004253452
0.007305257
0.013256275
0.008983749
-0.00085832
-0.004062715
-1.91E-05
0.003795682
0.011577782864118369
0.00959411
0.007991913
-0.004520485
-0.001850156
-0.001392386
0.004024567
0.001049058
0.004711223
0.002040894
-0.001316091
-0.005741207
-0.006733043
0.003795682
0.007076371
0.003643091
-0.002918288
-0.003299763
-0.002841993
-0.006046387
-0.00055314
0.006542306
0.003566796
-0.00055314
-0.001392386
-0.002689403
0.003109026
-0.001773861
0.005245289
0.013866636148622824
0.010509651331349623
0.003185321
0.000972763
0.00928893
0.008907454
0.008525978
0.012798504615854078
0.009212634
0.008297093
0.015468833447775941
0.011806668192568814
0.017376211
0.020580605783169226
0.012340733958953187
0.008144503
0.004024567
0.0097467
0.019741359578850926
0.023479819943541536
0.016765850308995134
0.005092699
0.004940108
0.010891126878767032
0.018520637827115216
0.017299916075379507
0.016918440527962098
0.009975586
0.003490501
0.005397879
0.011577782864118369
0.018978408484016107
0.017376211
0.011120012207217478
0.002193484
0.00616083
0.010585946440833105
0.019283588921950034
0.015316243228808977
0.013714046
0.008754864
0.001049058
-0.001544976
0.007534142
0.014476997024490679
0.023327229724574572
0.022106507972838862
0.00616083
-0.006580453
-0.003147173
0.011043717097733996
0.014705882352941124
0.014400701915007197
0.011692225528343592
0.007419699
0.004673075
0.003223468
0.005359731
0.008945602
0.013294423
0.010624093995574846
0.005207141
0.002765698
0.002765698
0.008335241
0.011463340199893146
0.017109178301670802
0.004673075
0.001621271
0.001316091
0.003070878
0.013447013046463674
0.015888456549935093
0.010852979324025291
-0.000896468
0.00070573
0.004749371
0.013599603265430638
0.013141832608529747
0.011081864652475737
0.011692225528343592
0.009632258
-0.000438697
0.004062715
0.009098192
0.014209964141298492
0.012149996185244483
0.003147173
0.006198978
0.011158159761959219
0.010013733119706991
0.009098192
0.014744029907682865
